Number	Time	Temperature
     1	 1431811	60.0
     2	 1431861	60.0
     3	 1431911	36.9
     4	 1431961	36.6
     5	 1432013	36.9
     6	 1432063	36.9
     7	 1432113	37.3
     8	 1432163	37.6
     9	 1432223	38.1
    10	 1432269	38.4
    11	 1432316	40.1
    12	 1432363	40.6
    13	 1432413	41.3
    14	 1432461	42.2
    15	 1432511	43.1
    16	 1432561	43.8
    17	 1432611	44.6
    18	 1432663	45.5
    19	 1432713	46.4
    20	 1432763	47.1
    21	 1432813	48.0
    22	 1432871	49.0
    23	 1432917	49.7
    24	 1432965	51.1
    25	 1433011	51.8
    26	 1433061	52.3
    27	 1433111	52.9
    28	 1433161	53.0
    29	 1433213	53.3
    30	 1433263	53.3
    31	 1433313	53.4
    32	 1433361	53.3
    33	 1433413	53.1
    34	 1433461	53.3
    35	 1433513	53.0
    36	 1433563	52.7
    37	 1433611	52.3
    38	 1433661	52.2
    39	 1433719	51.9
    40	 1433767	51.5
    41	 1433813	51.2
    42	 1433863	51.1
    43	 1433911	50.8
    44	 1433961	50.5
    45	 1434011	50.3
    46	 1434061	50.1
    47	 1434111	49.9
    48	 1434163	49.9
    49	 1434213	49.8
    50	 1434263	49.7
    51	 1434313	49.7
    52	 1434371	49.8
    53	 1434419	49.9
    54	 1434465	49.8
    55	 1434515	49.8
    56	 1434563	49.8
    57	 1434613	49.8
    58	 1434663	49.8
    59	 1434711	49.9
    60	 1434763	49.8
    61	 1434813	49.8
    62	 1434863	49.7
    63	 1434913	49.7
    64	 1434963	49.7
    65	 1435013	49.5
    66	 1435063	49.5
    67	 1435121	49.5
    68	 1435167	49.7
    69	 1435213	49.7
    70	 1435263	49.7
    71	 1435311	49.7
    72	 1435363	49.7
    73	 1435411	49.7
    74	 1435461	49.8
    75	 1435513	50.1
    76	 1435561	49.8
    77	 1435611	50.1
    78	 1435661	50.1
    79	 1435711	50.1
    80	 1435763	50.1
    81	 1435813	50.1
    82	 1435861	50.1
    83	 1435913	49.9
    84	 1435971	49.9
    85	 1436019	49.9
    86	 1436069	49.8
    87	 1436115	49.8
    88	 1436163	49.7
    89	 1436213	49.7
    90	 1436261	49.8
    91	 1436311	49.7
    92	 1436361	49.5
    93	 1436411	49.7
    94	 1436463	49.7
    95	 1436513	49.7
    96	 1436563	49.7
    97	 1436611	49.7
    98	 1436671	49.7
    99	 1436717	49.7
   100	 1436763	49.9
   101	 1436813	49.8
   102	 1436861	49.8
   103	 1436911	50.1
   104	 1436961	49.9
   105	 1437011	50.1
   106	 1437063	49.9
   107	 1437113	50.1
   108	 1437163	49.9
   109	 1437213	49.8
   110	 1437263	49.9
   111	 1437313	49.9
   112	 1437361	49.9
   113	 1437413	49.9
   114	 1437471	49.9
   115	 1437519	50.1
   116	 1437565	50.1
   117	 1437613	49.9
   118	 1437663	50.1
   119	 1437713	50.1
   120	 1437763	50.1
   121	 1437811	50.1
   122	 1437861	50.1
   123	 1437911	50.1
   124	 1437963	49.9
   125	 1438011	49.9
   126	 1438075	49.9
   127	 1438119	49.9
   128	 1438167	49.8
   129	 1438213	49.8
   130	 1438261	49.7
   131	 1438311	49.8
   132	 1438361	49.8
   133	 1438415	49.8
   134	 1438463	49.9
   135	 1438511	49.9
   136	 1438563	49.8
   137	 1438611	50.1
   138	 1438661	49.8
   139	 1438713	49.9
   140	 1438763	50.1
   141	 1438813	49.9
   142	 1438863	50.1
   143	 1438913	50.1
   144	 1438975	50.1
   145	 1439019	50.1
   146	 1439065	50.1
   147	 1439113	50.1
   148	 1439163	50.1
   149	 1439211	50.1
   150	 1439261	50.1
   151	 1439311	49.9
   152	 1439361	50.1
   153	 1439413	50.1
   154	 1439463	49.9
   155	 1439513	49.9
   156	 1439563	49.9
   157	 1439621	49.9
   158	 1439667	50.1
   159	 1439715	49.9
   160	 1439763	50.1
   161	 1439813	50.1
   162	 1439861	50.1
   163	 1439911	50.1
   164	 1439963	50.3
   165	 1440013	50.1
   166	 1440063	50.1
   167	 1440111	50.1
   168	 1440161	50.1
   169	 1440213	49.9
   170	 1440263	50.1
   171	 1440313	49.9
   172	 1440363	50.1
   173	 1440413	49.9
   174	 1440471	49.8
   175	 1440519	49.9
   176	 1440565	49.9
   177	 1440611	49.9
   178	 1440663	49.9
   179	 1440713	50.1
   180	 1440763	49.9
   181	 1440811	50.1
   182	 1440863	50.1
   183	 1440913	50.1
   184	 1440961	50.1
   185	 1441011	50.1
   186	 1441061	50.1
   187	 1441111	50.1
   188	 1441163	50.1
   189	 1441213	50.1
   190	 1441261	50.1
   191	 1441321	50.1
   192	 1441367	50.1
   193	 1441413	50.1
   194	 1441463	50.1
   195	 1441521	50.1
   196	 1441569	50.1
   197	 1441617	49.9
   198	 1441663	49.8
   199	 1441713	49.9
   200	 1441763	49.8
   201	 1441811	49.9
   202	 1441861	49.9
   203	 1441911	49.8
   204	 1441961	49.9
   205	 1442013	50.1
   206	 1442063	50.1
   207	 1442123	49.8
   208	 1442171	50.1
   209	 1442215	50.1
   210	 1442261	50.1
   211	 1442313	50.3
   212	 1442361	50.1
   213	 1442411	50.1
   214	 1442463	50.1
   215	 1442511	50.3
   216	 1442563	50.3
   217	 1442613	50.3
   218	 1442661	50.1
   219	 1442713	50.1
   220	 1442763	50.3
   221	 1442812	50.1
   222	 1442861	50.1
   223	 1442913	50.1
   224	 1442963	50.1
   225	 1443011	50.1
   226	 1443063	50.1
   227	 1443113	50.1
   228	 1443163	49.9
   229	 1443219	49.9
   230	 1443265	49.9
   231	 1443311	50.1
   232	 1443363	49.9
   233	 1443411	50.1
   234	 1443461	50.1
   235	 1443513	50.1
   236	 1443561	50.1
   237	 1443613	50.1
   238	 1443663	50.1
   239	 1443713	50.1
   240	 1443763	50.1
   241	 1443823	50.3
   242	 1443871	50.3
   243	 1443917	50.3
   244	 1443963	50.1
   245	 1444011	50.3
   246	 1444063	50.1
   247	 1444111	50.1
   248	 1444161	50.1
   249	 1444213	50.1
   250	 1444263	50.1
   251	 1444311	50.1
   252	 1444361	50.1
   253	 1444411	50.1
   254	 1444461	50.1
   255	 1444511	50.1
   256	 1444563	50.1
   257	 1444613	49.9
   258	 1444661	49.9
   259	 1444721	49.9
   260	 1444767	49.9
   261	 1444812	49.9
   262	 1444863	50.1
   263	 1444913	50.1
   264	 1444961	50.1
   265	 1445011	50.1
   266	 1445061	50.1
   267	 1445111	50.1
   268	 1445163	50.1
   269	 1445213	50.1
   270	 1445261	50.1
   271	 1445311	50.1
   272	 1445369	50.1
   273	 1445417	50.1
   274	 1445463	49.9
   275	 1445513	50.1
   276	 1445571	50.1
   277	 1445617	50.1
   278	 1445663	49.9
   279	 1445713	49.9
   280	 1445763	49.9
   281	 1445811	50.1
   282	 1445861	49.9
   283	 1445911	50.1
   284	 1445963	50.1
   285	 1446011	50.1
   286	 1446063	50.1
   287	 1446113	50.1
   288	 1446163	50.1
   289	 1446221	50.1
   290	 1446269	50.1
   291	 1446317	50.1
   292	 1446363	50.1
   293	 1446413	50.1
   294	 1446461	50.1
   295	 1446511	50.1
   296	 1446561	50.3
   297	 1446611	50.1
   298	 1446663	50.1
   299	 1446713	50.1
   300	 1446763	50.3
   301	 1446813	50.1
   302	 1446873	50.1
   303	 1446919	50.1
   304	 1446967	50.3
   305	 1447011	50.1
   306	 1447061	50.1
   307	 1447111	50.1
   308	 1447161	50.1
   309	 1447211	50.3
   310	 1447261	50.1
   311	 1447313	50.1
   312	 1447363	50.3
   313	 1447413	50.1
   314	 1447461	50.3
   315	 1447511	50.1
   316	 1447561	50.1
   317	 1447611	50.3
   318	 1447661	50.3
   319	 1447711	50.1
   320	 1447763	50.1
   321	 1447813	50.1
   322	 1447863	50.1
   323	 1447913	50.1
   324	 1447972	50.1
   325	 1448019	50.1
   326	 1448065	50.1
   327	 1448113	50.1
   328	 1448163	50.1
   329	 1448211	50.1
   330	 1448261	50.1
   331	 1448311	50.1
   332	 1448361	50.1
   333	 1448413	50.1
   334	 1448461	50.1
   335	 1448513	50.1
   336	 1448563	50.1
   337	 1448611	49.9
   338	 1448669	49.9
   339	 1448715	50.1
   340	 1448765	49.8
   341	 1448811	49.9
   342	 1448863	50.1
   343	 1448911	50.1
   344	 1448961	50.1
   345	 1449011	50.1
   346	 1449063	49.9
   347	 1449113	50.1
   348	 1449163	50.1
   349	 1449213	50.3
   350	 1449263	50.3
   351	 1449311	50.4
   352	 1449363	50.3
   353	 1449413	50.3
   354	 1449471	50.3
   355	 1449519	50.4
   356	 1449565	50.4
   357	 1449613	50.3
   358	 1449662	50.3
   359	 1449711	50.1
   360	 1449763	50.1
   361	 1449813	50.1
   362	 1449861	50.3
   363	 1449913	50.1
   364	 1449961	50.1
   365	 1450014	50.1
   366	 1450063	50.1
   367	 1450121	50.1
   368	 1450169	50.1
   369	 1450213	50.1
   370	 1450261	50.1
   371	 1450311	50.1
   372	 1450361	50.1
   373	 1450411	50.1
   374	 1450463	50.1
   375	 1450511	50.1
   376	 1450561	50.1
   377	 1450611	50.1
   378	 1450661	50.1
   379	 1450713	50.1
   380	 1450763	50.1
   381	 1450813	50.1
   382	 1450863	49.9
   383	 1450921	50.1
   384	 1450971	50.1
   385	 1451015	50.1
   386	 1451065	49.9
   387	 1451113	50.1
   388	 1451163	50.1
   389	 1451211	50.1
   390	 1451261	50.1
   391	 1451311	50.1
   392	 1451363	50.1
   393	 1451413	50.1
   394	 1451461	50.1
   395	 1451511	50.1
   396	 1451561	50.3
   397	 1451613	50.1
   398	 1451663	50.1
   399	 1451713	50.1
   400	 1451771	50.1
   401	 1451819	49.9
   402	 1451867	50.1
   403	 1451913	49.9
   404	 1451963	50.1
   405	 1452011	49.9
   406	 1452061	49.9
   407	 1452111	49.9
   408	 1452161	49.9
   409	 1452213	50.1
   410	 1452263	50.1
   411	 1452311	49.9
   412	 1452363	50.1
   413	 1452421	50.1
   414	 1452471	50.1
   415	 1452517	50.1
   416	 1452563	50.1
   417	 1452613	50.1
   418	 1452661	50.1
   419	 1452711	50.1
   420	 1452763	50.1
   421	 1452811	50.1
   422	 1452863	50.1
   423	 1452913	50.1
   424	 1452963	50.1
   425	 1453011	50.1
   426	 1453071	50.1
   427	 1453117	50.1
   428	 1453165	50.1
   429	 1453211	50.1
   430	 1453261	50.1
   431	 1453320	50.1
   432	 1453366	50.1
   433	 1453413	50.1
   434	 1453461	49.9
   435	 1453511	50.1
   436	 1453561	49.9
   437	 1453611	50.1
   438	 1453661	49.9
   439	 1453713	50.1
   440	 1453763	49.9
   441	 1453813	49.9
   442	 1453863	49.9
   443	 1453925	49.9
   444	 1453971	50.1
   445	 1454017	50.1
   446	 1454063	50.1
   447	 1454111	50.1
   448	 1454161	50.1
   449	 1454211	50.1
   450	 1454261	50.1
   451	 1454311	50.1
   452	 1454363	50.1
   453	 1454413	50.1
   454	 1454463	50.1
   455	 1454513	50.1
   456	 1454563	50.3
   457	 1454621	50.3
   458	 1454667	50.1
   459	 1454713	50.1
   460	 1454763	50.1
   461	 1454813	50.1
   462	 1454863	50.1
   463	 1454911	50.1
   464	 1454963	50.1
   465	 1455011	50.1
   466	 1455061	50.1
   467	 1455111	49.9
   468	 1455161	50.1
   469	 1455213	49.9
   470	 1455263	50.1
   471	 1455313	50.1
   472	 1455361	49.9
   473	 1455411	50.1
   474	 1455469	50.1
   475	 1455519	50.1
   476	 1455563	50.1
   477	 1455611	50.1
   478	 1455661	50.1
   479	 1455711	50.1
   480	 1455763	50.1
   481	 1455811	50.1
   482	 1455863	50.1
   483	 1455913	50.1
   484	 1455963	50.1
   485	 1456013	50.1
   486	 1456073	49.9
   487	 1456121	49.9
   488	 1456169	50.1
   489	 1456215	49.9
   490	 1456263	49.9
   491	 1456311	49.9
   492	 1456361	49.9
   493	 1456413	50.1
   494	 1456463	49.9
   495	 1456511	49.9
   496	 1456561	49.9
   497	 1456611	50.1
   498	 1456661	49.8
   499	 1456711	50.1
   500	 1456763	50.1
   501	 1456811	50.1
   502	 1456862	50.1
   503	 1456911	50.1
   504	 1456969	50.1
   505	 1457019	50.1
   506	 1457065	50.3
   507	 1457111	50.3
   508	 1457161	50.3
   509	 1457211	50.3
   510	 1457261	50.4
   511	 1457313	50.4
   512	 1457363	50.3
   513	 1457411	50.3
   514	 1457463	50.4
   515	 1457513	50.1
   516	 1457573	50.1
   517	 1457619	50.3
   518	 1457665	50.1
   519	 1457713	50.1
   520	 1457773	50.3
   521	 1457821	50.1
   522	 1457867	50.1
   523	 1457913	50.3
   524	 1457961	50.1
   525	 1458011	50.1
   526	 1458061	50.1
   527	 1458111	50.1
   528	 1458161	50.1
   529	 1458211	50.1
   530	 1458263	50.1
   531	 1458313	50.3
   532	 1458363	50.1
   533	 1458421	50.1
   534	 1458469	50.3
   535	 1458515	50.3
   536	 1458563	50.3
   537	 1458613	50.1
   538	 1458661	50.1
   539	 1458711	50.1
   540	 1458763	50.1
   541	 1458811	50.1
   542	 1458861	50.1
   543	 1458911	50.1
   544	 1458961	50.1
   545	 1459011	50.1
   546	 1459071	50.1
   547	 1459113	50.1
   548	 1459161	50.1
   549	 1459211	50.1
   550	 1459261	50.1
   551	 1459311	49.9
   552	 1459363	50.1
   553	 1459413	50.1
   554	 1459463	49.9
   555	 1459521	50.1
   556	 1459569	49.9
   557	 1459615	50.1
   558	 1459661	49.9
   559	 1459711	50.1
   560	 1459763	50.1
   561	 1459811	50.1
   562	 1459861	50.1
   563	 1459911	50.1
   564	 1459963	50.1
   565	 1460013	50.1
   566	 1460061	50.1
   567	 1460113	50.1
   568	 1460171	50.1
   569	 1460219	50.1
   570	 1460265	50.1
   571	 1460311	49.9
   572	 1460363	50.1
   573	 1460411	50.1
   574	 1460461	50.1
   575	 1460511	50.1
   576	 1460561	50.1
   577	 1460611	50.1
   578	 1460661	50.1
   579	 1460711	49.9
   580	 1460763	50.1
   581	 1460811	50.1
   582	 1460861	50.1
   583	 1460913	50.1
   584	 1460971	49.9
   585	 1461019	50.1
   586	 1461063	50.1
   587	 1461111	49.9
   588	 1461161	49.9
   589	 1461211	49.9
   590	 1461261	49.9
   591	 1461311	49.9
   592	 1461361	49.9
   593	 1461411	50.1
   594	 1461461	49.9
   595	 1461511	49.9
   596	 1461563	50.1
   597	 1461619	49.9
   598	 1461667	50.1
   599	 1461713	50.1
   600	 1461763	50.1
   601	 1461813	49.9
   602	 1461861	50.1
   603	 1461911	50.1
   604	 1461961	50.1
   605	 1462013	50.1
   606	 1462061	50.1
   607	 1462111	50.1
   608	 1462161	49.9
   609	 1462211	49.9
   610	 1462261	50.1
   611	 1462311	50.1
   612	 1462363	50.1
   613	 1462411	49.8
   614	 1462471	49.9
   615	 1462511	50.1
   616	 1462567	49.9
   617	 1462611	50.1
   618	 1462661	50.1
   619	 1462711	49.9
   620	 1462763	50.1
   621	 1462811	50.1
   622	 1462861	50.1
   623	 1462911	50.1
   624	 1462961	50.1
   625	 1463011	50.1
   626	 1463073	50.1
   627	 1463121	50.1
   628	 1463167	50.1
   629	 1463213	50.1
   630	 1463261	50.1
   631	 1463311	50.1
   632	 1463367	50.1
   633	 1463415	50.1
   634	 1463464	50.1
   635	 1463523	50.1
   636	 1463567	50.1
   637	 1463615	50.1
   638	 1463661	49.9
   639	 1463713	50.1
   640	 1463763	50.1
   641	 1463811	50.1
   642	 1463861	49.8
   643	 1463911	49.8
   644	 1463963	50.1
   645	 1464011	50.1
   646	 1464063	50.1
   647	 1464123	50.1
   648	 1464169	50.1
   649	 1464215	50.1
   650	 1464263	50.1
   651	 1464311	50.1
   652	 1464361	50.1
   653	 1464411	50.1
   654	 1464461	50.1
   655	 1464511	50.1
   656	 1464561	50.1
   657	 1464611	50.1
   658	 1464661	50.1
   659	 1464711	50.1
   660	 1464763	50.1
   661	 1464813	49.9
   662	 1464861	50.1
   663	 1464923	49.9
   664	 1464971	50.1
   665	 1465016	50.1
   666	 1465063	50.1
   667	 1465111	50.1
   668	 1465161	50.1
   669	 1465211	50.1
   670	 1465261	50.1
   671	 1465313	50.3
   672	 1465361	50.1
   673	 1465411	50.1
   674	 1465461	50.1
   675	 1465513	50.3
   676	 1465561	50.1
   677	 1465613	50.3
   678	 1465663	50.3
   679	 1465713	50.4
   680	 1465769	50.3
   681	 1465817	50.1
   682	 1465863	50.4
   683	 1465911	50.3
   684	 1465961	50.3
   685	 1466011	50.3
   686	 1466061	50.3
   687	 1466111	50.1
   688	 1466161	50.1
   689	 1466211	50.3
   690	 1466261	50.3
   691	 1466311	50.3
   692	 1466371	50.3
   693	 1466419	50.1
   694	 1466465	50.4
   695	 1466513	50.3
   696	 1466561	50.3
   697	 1466611	50.4
   698	 1466661	50.3
   699	 1466711	50.3
   700	 1466763	50.3
   701	 1466811	50.3
   702	 1466861	50.1
   703	 1466911	50.3
   704	 1466963	50.3
   705	 1467011	50.4
   706	 1467061	50.3
   707	 1467111	50.4
   708	 1467161	50.1
   709	 1467223	50.3
   710	 1467269	50.3
   711	 1467315	50.3
   712	 1467361	50.3
   713	 1467413	50.3
   714	 1467461	50.3
   715	 1467511	50.4
   716	 1467561	50.3
   717	 1467611	50.4
   718	 1467661	50.4
   719	 1467713	50.3
   720	 1467763	50.1
   721	 1467813	50.3
   722	 1467871	50.3
   723	 1467919	50.3
   724	 1467965	50.3
   725	 1468011	50.3
   726	 1468061	50.1
   727	 1468111	50.1
   728	 1468161	50.3
   729	 1468213	50.1
   730	 1468261	50.1
   731	 1468311	50.3
   732	 1468361	50.3
   733	 1468411	50.3
   734	 1468463	50.3
   735	 1468511	50.3
   736	 1468561	50.3
   737	 1468611	50.3
   738	 1468661	50.3
   739	 1468721	50.4
   740	 1468767	50.3
   741	 1468813	50.3
   742	 1468861	50.3
   743	 1468911	50.1
   744	 1468963	50.1
   745	 1469011	50.1
   746	 1469063	50.1
   747	 1469111	50.3
   748	 1469163	50.3
   749	 1469211	50.3
   750	 1469263	50.1
   751	 1469311	50.1
   752	 1469369	50.1
   753	 1469417	50.1
   754	 1469463	50.1
   755	 1469511	50.3
   756	 1469569	50.1
   757	 1469619	50.1
   758	 1469665	50.1
   759	 1469711	50.1
   760	 1469763	50.1
   761	 1469811	50.1
   762	 1469861	50.1
   763	 1469911	50.1
   764	 1469961	50.1
   765	 1470011	50.1
   766	 1470061	50.1
   767	 1470113	50.1
   768	 1470173	50.1
   769	 1470219	50.1
   770	 1470263	50.1
   771	 1470311	49.9
   772	 1470363	50.1
   773	 1470411	50.1
   774	 1470461	50.1
   775	 1470511	50.1
   776	 1470561	50.1
   777	 1470611	50.1
   778	 1470661	50.1
   779	 1470711	50.1
   780	 1470763	50.1
   781	 1470821	50.1
   782	 1470865	50.1
   783	 1470913	50.1
   784	 1470963	49.9
   785	 1471013	50.1
   786	 1471061	50.1
   787	 1471111	50.1
   788	 1471161	50.1
   789	 1471211	50.1
   790	 1471272	50.1
   791	 1471319	49.9
   792	 1471363	50.1
   793	 1471413	50.1
   794	 1471463	50.1
   795	 1471511	50.1
   796	 1471561	50.1
   797	 1471611	50.1
   798	 1471661	50.1
   799	 1471711	50.1
   800	 1471763	50.1
   801	 1471811	49.9
   802	 1471873	49.9
   803	 1471921	50.1
   804	 1471967	50.1
   805	 1472013	50.1
   806	 1472063	50.1
   807	 1472111	50.1
   808	 1472161	50.1
   809	 1472211	50.1
   810	 1472261	50.1
   811	 1472311	50.1
   812	 1472361	50.1
   813	 1472411	50.1
   814	 1472461	50.1
   815	 1472511	50.1
   816	 1472561	50.3
   817	 1472611	50.1
   818	 1472663	50.1
   819	 1472723	50.1
   820	 1472769	50.3
   821	 1472817	50.1
   822	 1472863	50.1
   823	 1472913	50.1
   824	 1472961	50.1
   825	 1473011	50.1
   826	 1473061	50.1
   827	 1473113	50.1
   828	 1473161	50.1
   829	 1473211	50.1
   830	 1473261	50.1
   831	 1473313	50.1
   832	 1473371	50.1
   833	 1473417	50.1
   834	 1473463	49.9
   835	 1473513	49.9
   836	 1473561	49.9
   837	 1473611	50.1
   838	 1473661	49.9
   839	 1473711	49.9
   840	 1473763	50.1
   841	 1473811	50.1
   842	 1473861	50.1
   843	 1473911	50.1
   844	 1473961	50.1
   845	 1474011	50.1
   846	 1474061	50.1
   847	 1474113	50.1
   848	 1474173	50.1
   849	 1474221	50.1
   850	 1474267	50.1
   851	 1474315	50.1
   852	 1474361	50.1
   853	 1474411	50.3
   854	 1474461	50.1
   855	 1474511	50.3
   856	 1474561	50.1
   857	 1474611	50.1
   858	 1474661	50.1
   859	 1474713	50.1
   860	 1474763	50.1
   861	 1474819	50.1
   862	 1474863	50.1
   863	 1474911	50.1
   864	 1474961	50.1
   865	 1475021	50.1
   866	 1475069	50.1
   867	 1475115	50.1
   868	 1475163	50.1
   869	 1475213	50.1
   870	 1475261	50.1
   871	 1475311	50.1
   872	 1475361	50.1
   873	 1475411	50.1
   874	 1475461	50.1
   875	 1475511	50.1
   876	 1475563	50.1
   877	 1475611	50.1
   878	 1475674	50.1
   879	 1475719	50.1
   880	 1475762	50.1
   881	 1475811	50.1
   882	 1475861	50.1
   883	 1475911	49.9
   884	 1475961	49.9
   885	 1476011	49.9
   886	 1476061	49.9
   887	 1476111	50.1
   888	 1476161	49.9
   889	 1476211	49.9
   890	 1476261	49.9
   891	 1476313	50.1
   892	 1476371	49.8
   893	 1476417	50.1
   894	 1476465	50.1
   895	 1476513	50.1
   896	 1476561	49.9
   897	 1476611	50.1
   898	 1476661	50.1
   899	 1476711	50.1
   900	 1476763	50.1
   901	 1476811	50.1
   902	 1476861	50.1
   903	 1476911	50.3
   904	 1476961	50.1
   905	 1477011	50.1
   906	 1477061	50.1
   907	 1477111	50.1
   908	 1477161	50.1
   909	 1477222	50.1
   910	 1477269	50.1
   911	 1477315	50.1
   912	 1477363	50.1
   913	 1477413	50.1
   914	 1477461	49.9
   915	 1477511	50.1
   916	 1477561	49.8
   917	 1477613	49.9
   918	 1477661	49.9
   919	 1477711	49.9
   920	 1477763	49.9
   921	 1477822	49.9
   922	 1477869	49.9
   923	 1477915	50.1
   924	 1477963	50.1
   925	 1478023	50.1
   926	 1478069	50.1
   927	 1478117	50.1
   928	 1478163	50.1
   929	 1478211	50.3
   930	 1478261	50.1
   931	 1478311	50.1
   932	 1478361	50.1
   933	 1478411	50.1
   934	 1478461	50.3
   935	 1478511	50.1
   936	 1478563	50.1
   937	 1478613	50.1
   938	 1478673	50.1
   939	 1478721	50.1
   940	 1478765	50.1
   941	 1478811	50.1
   942	 1478861	50.1
   943	 1478911	50.1
   944	 1478961	50.1
   945	 1479011	50.1
   946	 1479061	50.1
   947	 1479111	49.9
   948	 1479161	49.9
   949	 1479211	49.8
   950	 1479263	49.9
   951	 1479321	49.9
