Number	Time	Temperature
     1	 1430236	34.6
     2	 1430286	34.6
     3	 1430336	34.8
     4	 1430386	35.1
     5	 1430436	35.4
     6	 1430498	35.9
     7	 1430544	36.7
     8	 1430586	37.3
     9	 1430638	37.9
    10	 1430690	38.7
    11	 1430738	39.6
    12	 1430786	40.4
    13	 1430836	41.2
    14	 1430886	42.1
    15	 1430936	43.0
    16	 1430986	44.8
    17	 1431036	45.7
    18	 1431086	46.4
    19	 1431136	47.1
    20	 1431200	48.1
    21	 1431254	48.8
    22	 1431292	49.5
    23	 1431338	50.4
    24	 1431388	50.4
    25	 1431436	51.8
    26	 1431486	52.3
    27	 1431536	52.7
    28	 1431586	53.0
    29	 1431636	53.4
    30	 1431686	53.4
    31	 1431736	53.4
    32	 1431786	53.1
    33	 1431836	53.0
    34	 1431886	52.9
    35	 1431956	52.6
    36	 1432000	52.1
    37	 1432046	51.8
    38	 1432100	51.5
    39	 1432148	51.2
    40	 1432188	50.8
    41	 1432244	50.5
    42	 1432286	50.3
    43	 1432336	50.1
    44	 1432386	49.8
    45	 1432436	49.7
    46	 1432488	49.2
    47	 1432536	49.4
    48	 1432586	49.4
    49	 1432636	49.4
    50	 1432686	49.1
    51	 1432736	49.5
    52	 1432798	49.8
    53	 1432856	50.3
    54	 1432898	50.4
    55	 1432940	50.7
    56	 1432990	50.7
    57	 1433036	51.0
    58	 1433086	51.1
    59	 1433138	51.1
    60	 1433186	51.1
    61	 1433236	51.1
    62	 1433286	51.1
    63	 1433336	51.0
    64	 1433386	51.0
    65	 1433436	50.8
    66	 1433486	50.4
    67	 1433552	50.3
    68	 1433598	50.1
    69	 1433636	50.1
    70	 1433686	50.1
    71	 1433736	49.9
    72	 1433786	49.8
    73	 1433836	49.8
    74	 1433886	49.9
    75	 1433936	49.9
    76	 1433986	50.1
    77	 1434036	50.1
    78	 1434104	50.3
    79	 1434138	49.5
    80	 1434186	50.5
    81	 1434236	50.5
    82	 1434296	50.7
    83	 1434342	50.7
    84	 1434390	50.8
    85	 1434436	50.8
    86	 1434486	50.7
    87	 1434536	50.7
    88	 1434586	50.5
    89	 1434636	50.5
    90	 1434686	50.3
    91	 1434736	50.1
    92	 1434786	50.1
    93	 1434836	50.1
    94	 1434886	49.9
    95	 1434936	50.1
    96	 1434986	49.9
    97	 1435048	50.1
    98	 1435094	49.5
    99	 1435144	50.1
   100	 1435186	50.1
   101	 1435240	50.1
   102	 1435288	50.4
   103	 1435338	50.5
   104	 1435386	50.5
   105	 1435436	50.7
   106	 1435486	50.1
   107	 1435536	50.7
   108	 1435586	50.7
   109	 1435636	50.7
   110	 1435686	50.5
   111	 1435750	50.5
   112	 1435804	50.5
   113	 1435842	50.4
   114	 1435888	49.8
   115	 1435940	50.3
   116	 1435988	50.1
   117	 1436036	50.1
   118	 1436086	50.1
   119	 1436138	50.1
   120	 1436186	49.9
   121	 1436236	50.1
   122	 1436286	50.1
   123	 1436336	50.1
   124	 1436386	50.1
   125	 1436436	50.1
   126	 1436502	50.3
   127	 1436550	50.4
   128	 1436598	50.1
   129	 1436656	50.5
   130	 1436688	50.5
   131	 1436740	50.5
   132	 1436788	50.5
   133	 1436836	50.5
   134	 1436886	50.4
   135	 1436936	50.4
   136	 1436986	50.4
   137	 1437036	50.3
   138	 1437086	50.3
   139	 1437138	50.3
   140	 1437186	50.1
   141	 1437236	50.1
   142	 1437300	50.1
   143	 1437348	50.1
   144	 1437406	50.1
   145	 1437442	50.1
   146	 1437486	50.1
   147	 1437536	50.1
   148	 1437588	50.1
   149	 1437636	50.3
   150	 1437686	50.3
   151	 1437736	50.4
   152	 1437786	50.4
   153	 1437836	50.4
   154	 1437886	50.4
   155	 1437936	50.5
   156	 1437996	50.5
   157	 1438046	50.5
   158	 1438096	50.4
   159	 1438142	50.4
   160	 1438186	50.4
   161	 1438238	50.3
   162	 1438288	50.1
   163	 1438336	50.3
   164	 1438386	50.1
   165	 1438436	50.1
   166	 1438488	50.1
   167	 1438536	50.1
   168	 1438586	50.1
   169	 1438636	50.1
   170	 1438686	50.1
   171	 1438750	50.1
   172	 1438796	50.1
   173	 1438842	49.9
   174	 1438890	50.3
   175	 1438936	50.3
   176	 1438988	50.4
   177	 1439036	50.4
   178	 1439087	50.5
   179	 1439138	49.9
   180	 1439188	50.1
   181	 1439236	50.5
   182	 1439286	50.4
   183	 1439336	50.4
   184	 1439386	50.4
   185	 1439452	50.4
   186	 1439502	50.4
   187	 1439544	50.3
   188	 1439590	50.1
   189	 1439638	50.3
   190	 1439692	50.3
   191	 1439736	49.5
   192	 1439786	50.1
   193	 1439836	50.1
   194	 1439886	50.1
   195	 1439936	50.1
   196	 1439986	50.1
   197	 1440036	50.3
   198	 1440086	50.3
   199	 1440138	50.1
   200	 1440186	50.3
   201	 1440236	50.3
   202	 1440298	50.4
   203	 1440346	50.4
   204	 1440392	50.4
   205	 1440444	50.4
   206	 1440486	50.3
   207	 1440536	50.3
   208	 1440586	50.3
   209	 1440636	50.3
   210	 1440686	50.3
   211	 1440736	50.1
   212	 1440786	50.1
   213	 1440836	50.1
   214	 1440886	49.9
   215	 1440936	50.1
   216	 1440986	50.1
   217	 1441052	49.5
   218	 1441094	50.1
   219	 1441140	50.1
   220	 1441188	50.1
   221	 1441236	49.7
   222	 1441286	50.3
   223	 1441336	50.4
   224	 1441386	50.4
   225	 1441436	50.4
   226	 1441486	50.4
   227	 1441536	50.4
   228	 1441586	50.4
   229	 1441636	50.3
   230	 1441686	50.3
   231	 1441736	50.1
   232	 1441798	50.3
   233	 1441846	50.1
   234	 1441894	50.1
   235	 1441938	50.1
   236	 1441986	50.1
   237	 1442036	50.1
   238	 1442086	50.1
   239	 1442138	49.9
   240	 1442188	50.1
   241	 1442236	50.1
   242	 1442286	50.1
   243	 1442354	50.3
   244	 1442402	50.1
   245	 1442450	50.3
   246	 1442492	50.1
   247	 1442538	50.3
   248	 1442588	50.3
   249	 1442636	50.4
   250	 1442686	50.4
   251	 1442736	50.4
   252	 1442786	50.4
   253	 1442838	50.3
   254	 1442886	50.3
   255	 1442936	50.1
   256	 1442986	50.1
   257	 1443036	50.1
   258	 1443104	50.1
   259	 1443148	50.1
   260	 1443190	50.1
   261	 1443238	50.1
   262	 1443286	50.1
   263	 1443364	50.1
   264	 1443396	50.1
   265	 1443438	50.1
   266	 1443486	50.3
   267	 1443536	50.3
   268	 1443602	50.4
   269	 1443642	50.4
   270	 1443686	50.4
   271	 1443736	50.3
   272	 1443802	50.3
   273	 1443856	50.3
   274	 1443898	50.3
   275	 1443942	50.3
   276	 1443988	50.1
   277	 1444038	50.1
   278	 1444086	50.1
   279	 1444138	50.1
   280	 1444186	50.1
   281	 1444236	50.1
   282	 1444306	50.1
   283	 1444356	50.1
   284	 1444398	50.1
   285	 1444436	50.1
   286	 1444486	50.1
   287	 1444552	50.1
   288	 1444598	50.1
   289	 1444642	50.3
   290	 1444696	50.3
   291	 1444738	50.3
   292	 1444792	50.3
   293	 1444836	50.3
   294	 1444886	50.3
   295	 1444936	50.1
   296	 1444986	50.4
   297	 1445036	50.3
   298	 1445086	50.3
   299	 1445138	50.3
   300	 1445186	50.3
   301	 1445250	50.3
   302	 1445300	50.1
   303	 1445346	50.1
   304	 1445394	50.1
   305	 1445442	50.1
   306	 1445486	50.1
   307	 1445536	50.1
   308	 1445586	50.1
   309	 1445636	50.1
   310	 1445686	50.1
   311	 1445737	50.3
   312	 1445786	50.1
   313	 1445836	50.3
   314	 1445886	50.1
   315	 1445936	50.3
   316	 1445998	50.3
   317	 1446048	50.3
   318	 1446094	50.3
   319	 1446138	50.3
   320	 1446190	50.1
   321	 1446242	50.1
   322	 1446288	50.3
   323	 1446336	50.1
   324	 1446386	50.1
   325	 1446436	50.1
   326	 1446486	50.1
   327	 1446538	50.1
   328	 1446586	50.1
   329	 1446636	50.1
   330	 1446686	50.1
   331	 1446736	50.1
   332	 1446788	50.1
   333	 1446836	49.9
   334	 1446886	50.1
   335	 1446936	50.1
   336	 1446986	50.1
   337	 1447036	50.1
   338	 1447102	50.1
   339	 1447152	50.1
   340	 1447192	50.1
   341	 1447238	50.3
   342	 1447286	50.1
   343	 1447338	50.3
   344	 1447388	50.3
   345	 1447436	50.4
   346	 1447486	50.3
   347	 1447536	50.3
   348	 1447586	50.1
   349	 1447636	50.1
   350	 1447686	50.1
   351	 1447736	50.1
   352	 1447786	50.1
   353	 1447850	50.1
   354	 1447896	50.1
   355	 1447942	50.1
   356	 1447988	50.1
   357	 1448040	49.9
   358	 1448088	50.1
   359	 1448138	50.1
   360	 1448194	50.1
   361	 1448239	50.1
   362	 1448302	50.1
   363	 1448346	50.1
   364	 1448398	50.1
   365	 1448442	50.1
   366	 1448488	50.3
   367	 1448536	50.3
   368	 1448586	50.3
   369	 1448636	50.3
   370	 1448686	50.3
   371	 1448736	50.3
   372	 1448786	50.3
   373	 1448836	50.3
   374	 1448886	50.1
   375	 1448936	50.3
   376	 1449006	50.1
   377	 1449048	50.1
   378	 1449094	50.1
   379	 1449138	50.1
   380	 1449186	50.1
   381	 1449236	50.1
   382	 1449286	50.1
   383	 1449336	50.1
   384	 1449386	50.1
   385	 1449436	50.1
   386	 1449486	50.1
   387	 1449538	50.1
   388	 1449586	50.1
   389	 1449636	50.1
   390	 1449686	50.1
   391	 1449752	50.1
   392	 1449804	50.3
   393	 1449846	50.1
   394	 1449894	50.3
   395	 1449940	50.1
   396	 1449988	50.1
   397	 1450038	50.1
   398	 1450086	50.1
   399	 1450138	50.1
   400	 1450185	50.1
   401	 1450238	50.1
   402	 1450286	50.1
   403	 1450336	50.1
   404	 1450386	50.1
   405	 1450436	50.1
   406	 1450506	50.1
   407	 1450550	49.9
   408	 1450594	49.9
   409	 1450650	49.9
   410	 1450688	49.9
   411	 1450740	50.1
   412	 1450790	50.1
   413	 1450836	50.1
   414	 1450886	50.1
   415	 1450936	50.1
   416	 1450986	50.3
   417	 1451036	50.3
   418	 1451086	50.3
   419	 1451138	50.4
   420	 1451186	50.3
   421	 1451236	50.3
   422	 1451302	50.3
   423	 1451348	50.1
   424	 1451398	50.1
   425	 1451442	50.3
   426	 1451492	50.1
   427	 1451540	50.1
   428	 1451586	50.1
   429	 1451636	50.1
   430	 1451686	50.1
   431	 1451736	49.9
   432	 1451786	50.1
   433	 1451838	50.1
   434	 1451886	50.1
   435	 1451936	50.1
   436	 1451986	50.1
   437	 1452036	50.1
   438	 1452086	50.1
   439	 1452138	50.1
   440	 1452186	50.1
   441	 1452236	50.1
   442	 1452304	50.1
   443	 1452346	50.1
   444	 1452398	50.1
   445	 1452440	50.1
   446	 1452490	50.1
   447	 1452536	50.1
   448	 1452586	50.1
   449	 1452636	50.1
   450	 1452686	50.1
   451	 1452736	50.1
   452	 1452786	50.1
   453	 1452836	50.1
   454	 1452886	50.1
   455	 1452950	50.1
   456	 1452998	49.9
   457	 1453048	50.1
   458	 1453094	50.1
   459	 1453138	50.1
   460	 1453186	50.1
   461	 1453237	50.1
   462	 1453286	50.1
   463	 1453338	50.1
   464	 1453386	50.1
   465	 1453436	50.1
   466	 1453486	50.1
   467	 1453536	50.1
   468	 1453586	50.1
   469	 1453658	50.1
   470	 1453698	50.1
   471	 1453744	50.1
   472	 1453790	50.1
   473	 1453838	50.1
   474	 1453886	50.1
   475	 1453938	50.1
   476	 1453988	50.1
   477	 1454038	50.1
   478	 1454086	50.1
   479	 1454138	50.1
   480	 1454188	50.1
   481	 1454236	50.1
   482	 1454286	50.3
   483	 1454336	50.3
   484	 1454398	50.3
   485	 1454444	50.3
   486	 1454494	50.3
   487	 1454542	50.3
   488	 1454586	50.3
   489	 1454638	50.3
   490	 1454686	50.1
   491	 1454738	50.1
   492	 1454788	50.1
   493	 1454836	50.1
   494	 1454886	50.1
   495	 1454936	50.1
   496	 1454986	50.1
   497	 1455036	50.1
   498	 1455099	49.9
   499	 1455144	49.9
   500	 1455192	49.9
   501	 1455238	49.9
   502	 1455286	49.9
   503	 1455346	50.1
   504	 1455386	50.1
   505	 1455436	49.9
   506	 1455486	50.1
   507	 1455536	50.1
   508	 1455586	50.1
   509	 1455636	50.3
   510	 1455686	50.1
   511	 1455736	50.1
   512	 1455786	50.1
   513	 1455854	50.1
   514	 1455902	50.3
   515	 1455948	50.1
   516	 1455992	50.3
   517	 1456036	50.1
   518	 1456100	50.3
   519	 1456146	50.3
   520	 1456192	50.3
   521	 1456242	50.1
   522	 1456292	50.1
   523	 1456336	50.3
   524	 1456386	50.3
   525	 1456436	50.3
   526	 1456486	50.3
   527	 1456536	50.3
   528	 1456586	50.1
   529	 1456636	50.1
   530	 1456686	50.1
   531	 1456756	50.1
   532	 1456798	50.1
   533	 1456840	50.1
   534	 1456888	50.1
   535	 1456938	50.1
   536	 1456988	50.1
   537	 1457036	50.1
   538	 1457086	49.9
   539	 1457138	50.1
   540	 1457186	49.9
   541	 1457236	49.9
   542	 1457288	49.9
   543	 1457336	49.9
   544	 1457386	50.1
   545	 1457436	50.1
   546	 1457500	50.1
   547	 1457548	50.1
   548	 1457592	50.1
   549	 1457642	50.1
   550	 1457690	50.1
   551	 1457742	50.3
   552	 1457786	50.1
   553	 1457836	50.3
   554	 1457886	50.1
   555	 1457936	50.1
   556	 1457986	50.1
   557	 1458036	50.1
   558	 1458086	50.1
   559	 1458138	50.1
   560	 1458186	50.1
   561	 1458236	50.1
   562	 1458286	50.1
   563	 1458336	50.1
   564	 1458386	50.1
   565	 1458436	50.1
   566	 1458486	50.1
   567	 1458538	50.1
   568	 1458592	50.1
   569	 1458650	49.9
   570	 1458692	50.1
   571	 1458746	50.1
   572	 1458788	50.1
   573	 1458836	49.9
   574	 1458886	50.1
   575	 1458936	50.1
   576	 1458986	50.1
   577	 1459036	50.1
   578	 1459086	50.1
   579	 1459138	50.1
   580	 1459186	50.1
   581	 1459236	50.1
   582	 1459302	50.1
   583	 1459344	50.1
   584	 1459394	50.1
   585	 1459438	50.1
   586	 1459486	50.1
   587	 1459536	50.1
   588	 1459586	50.1
   589	 1459636	50.1
   590	 1459686	50.1
   591	 1459736	49.9
   592	 1459786	49.9
   593	 1459836	49.9
   594	 1459886	49.9
   595	 1459936	50.1
   596	 1460000	50.1
   597	 1460056	49.9
   598	 1460096	50.1
   599	 1460142	50.1
   600	 1460188	50.1
   601	 1460238	50.3
   602	 1460286	50.3
   603	 1460338	50.3
   604	 1460386	50.3
   605	 1460438	50.3
   606	 1460486	50.3
   607	 1460538	50.1
   608	 1460586	50.1
   609	 1460638	50.1
   610	 1460686	50.1
   611	 1460752	50.1
   612	 1460798	50.1
   613	 1460844	50.1
   614	 1460888	50.1
   615	 1460940	50.1
   616	 1460986	50.1
   617	 1461038	49.9
   618	 1461086	49.9
   619	 1461138	49.7
   620	 1461186	49.9
   621	 1461236	49.9
   622	 1461286	49.9
   623	 1461336	49.9
   624	 1461386	49.9
   625	 1461446	50.1
   626	 1461492	50.1
   627	 1461538	50.1
   628	 1461592	50.1
   629	 1461648	50.1
   630	 1461692	50.1
   631	 1461736	50.1
   632	 1461788	50.1
   633	 1461836	50.1
   634	 1461886	50.1
   635	 1461935	50.1
   636	 1461986	50.1
   637	 1462035	49.9
   638	 1462108	49.9
   639	 1462154	49.9
   640	 1462196	49.9
   641	 1462246	49.9
   642	 1462290	49.2
   643	 1462338	49.9
   644	 1462386	49.9
   645	 1462436	49.9
   646	 1462486	49.9
   647	 1462536	50.1
   648	 1462588	49.9
   649	 1462636	50.1
   650	 1462686	50.1
   651	 1462736	50.1
   652	 1462786	50.1
   653	 1462856	50.1
   654	 1462898	50.1
   655	 1462946	50.1
   656	 1462994	50.1
   657	 1463038	50.1
   658	 1463108	50.1
   659	 1463152	50.1
   660	 1463198	49.9
   661	 1463242	49.9
   662	 1463296	49.9
   663	 1463342	49.9
   664	 1463394	49.9
   665	 1463440	49.9
   666	 1463492	49.9
   667	 1463536	49.9
   668	 1463586	50.1
   669	 1463638	50.1
   670	 1463686	50.1
   671	 1463736	50.1
   672	 1463786	50.1
   673	 1463850	49.9
   674	 1463898	50.1
   675	 1463946	50.1
   676	 1463988	50.1
   677	 1464040	50.1
   678	 1464088	50.1
   679	 1464138	50.1
   680	 1464186	49.9
   681	 1464236	49.9
   682	 1464286	49.9
   683	 1464336	49.9
   684	 1464388	49.8
   685	 1464436	49.9
   686	 1464486	50.1
   687	 1464536	50.1
   688	 1464586	50.1
   689	 1464656	50.1
   690	 1464702	50.1
   691	 1464746	50.1
   692	 1464794	50.3
   693	 1464840	50.1
   694	 1464886	50.1
   695	 1464936	50.3
   696	 1464986	50.1
   697	 1465036	50.3
   698	 1465086	50.3
   699	 1465138	50.3
   700	 1465188	50.3
   701	 1465236	50.3
   702	 1465286	50.1
   703	 1465336	50.1
   704	 1465386	50.1
   705	 1465448	50.1
   706	 1465498	50.1
   707	 1465548	50.1
   708	 1465600	50.1
   709	 1465638	50.1
   710	 1465688	50.1
   711	 1465736	50.1
   712	 1465788	50.1
   713	 1465836	49.9
   714	 1465886	49.9
   715	 1465936	49.8
   716	 1465986	49.4
   717	 1466036	49.8
   718	 1466086	49.9
   719	 1466138	49.8
   720	 1466186	49.9
   721	 1466236	49.9
   722	 1466286	50.1
   723	 1466336	50.1
   724	 1466386	50.1
   725	 1466436	50.1
   726	 1466486	50.1
   727	 1466536	50.1
   728	 1466598	50.1
   729	 1466658	50.1
   730	 1466690	50.1
   731	 1466738	49.9
   732	 1466786	50.1
   733	 1466846	50.1
   734	 1466894	50.1
   735	 1466938	50.1
   736	 1466986	49.9
   737	 1467036	49.9
   738	 1467086	49.9
   739	 1467138	50.1
   740	 1467186	49.9
   741	 1467236	50.1
   742	 1467286	50.1
   743	 1467336	50.1
   744	 1467386	50.1
   745	 1467438	50.1
   746	 1467502	49.9
   747	 1467593	50.1
   748	 1467640	50.1
   749	 1467690	50.1
   750	 1467740	50.1
   751	 1467798	50.1
   752	 1467840	50.1
   753	 1467886	50.1
   754	 1467938	50.1
   755	 1467988	50.1
   756	 1468036	49.9
   757	 1468086	49.9
   758	 1468138	49.8
   759	 1468186	49.9
   760	 1468236	50.1
   761	 1468286	50.1
   762	 1468336	50.1
   763	 1468402	50.1
   764	 1468446	49.8
   765	 1468496	50.1
   766	 1468538	50.1
   767	 1468586	50.1
   768	 1468636	50.1
   769	 1468686	50.1
   770	 1468736	50.1
   771	 1468786	50.1
   772	 1468836	50.1
   773	 1468886	49.9
   774	 1468936	50.1
   775	 1468986	50.1
   776	 1469036	50.1
   777	 1469086	49.9
   778	 1469150	49.9
   779	 1469198	49.8
   780	 1469248	49.9
   781	 1469298	49.9
   782	 1469338	49.9
   783	 1469392	49.9
   784	 1469438	50.1
   785	 1469488	49.9
   786	 1469536	49.9
   787	 1469586	50.1
   788	 1469636	50.1
   789	 1469686	50.1
   790	 1469736	50.1
   791	 1469786	50.1
   792	 1469836	50.1
   793	 1469886	50.1
   794	 1469936	50.1
   795	 1469998	50.1
   796	 1470050	50.1
   797	 1470092	50.1
   798	 1470142	50.1
   799	 1470190	49.9
   800	 1470238	50.1
   801	 1470286	50.1
   802	 1470336	50.1
   803	 1470386	49.9
   804	 1470436	49.9
   805	 1470486	49.9
   806	 1470536	49.9
   807	 1470588	49.9
   808	 1470636	49.9
   809	 1470698	49.9
   810	 1470744	50.1
   811	 1470794	50.1
   812	 1470839	50.1
   813	 1470888	50.1
   814	 1470936	50.1
   815	 1470986	50.1
   816	 1471036	50.1
   817	 1471086	50.1
   818	 1471138	50.1
   819	 1471188	50.1
   820	 1471236	50.1
   821	 1471286	50.1
   822	 1471354	50.1
   823	 1471404	50.1
   824	 1471450	50.1
   825	 1471494	50.1
   826	 1471536	49.9
   827	 1471586	49.9
   828	 1471636	49.7
   829	 1471686	49.8
   830	 1471736	49.8
   831	 1471786	49.8
   832	 1471836	49.9
   833	 1471886	49.9
   834	 1471936	49.9
   835	 1471986	49.9
   836	 1472036	50.1
   837	 1472086	50.1
   838	 1472154	50.1
   839	 1472198	50.1
   840	 1472242	50.1
   841	 1472292	50.1
   842	 1472338	50.1
   843	 1472386	50.1
   844	 1472436	50.1
   845	 1472486	50.1
   846	 1472536	50.1
   847	 1472586	50.1
   848	 1472636	50.1
   849	 1472686	50.1
   850	 1472736	50.1
   851	 1472786	50.1
   852	 1472836	49.9
   853	 1472886	50.1
   854	 1472950	49.9
   855	 1472990	49.9
   856	 1473038	49.9
   857	 1473088	49.9
   858	 1473138	50.1
   859	 1473186	50.1
   860	 1473236	50.1
   861	 1473286	50.1
   862	 1473336	50.1
   863	 1473386	50.1
   864	 1473436	50.1
   865	 1473486	50.1
   866	 1473536	50.1
   867	 1473586	50.1
   868	 1473650	49.9
   869	 1473700	49.9
   870	 1473744	49.9
   871	 1473794	49.9
   872	 1473846	49.8
   873	 1473888	49.9
   874	 1473936	49.9
   875	 1473986	49.9
   876	 1474036	49.4
   877	 1474086	49.9
   878	 1474138	50.1
   879	 1474186	50.1
   880	 1474236	50.1
   881	 1474286	50.1
   882	 1474336	50.1
   883	 1474400	50.1
   884	 1474446	50.1
   885	 1474500	50.1
   886	 1474540	50.1
   887	 1474588	50.1
   888	 1474636	50.1
   889	 1474686	50.1
   890	 1474736	50.1
   891	 1474786	50.1
   892	 1474836	50.1
   893	 1474888	50.1
   894	 1474936	50.1
   895	 1474986	49.9
   896	 1475036	49.9
   897	 1475086	49.9
   898	 1475152	49.9
   899	 1475202	49.7
   900	 1475252	49.9
   901	 1475288	50.1
   902	 1475336	50.1
   903	 1475386	50.1
   904	 1475438	50.1
   905	 1475486	50.1
   906	 1475536	50.1
   907	 1475586	50.1
   908	 1475636	50.1
   909	 1475686	50.1
   910	 1475736	50.1
   911	 1475786	50.1
   912	 1475836	50.1
   913	 1475886	50.1
   914	 1475936	50.1
   915	 1476002	49.9
   916	 1476048	50.1
   917	 1476094	49.9
   918	 1476140	49.9
   919	 1476188	49.9
   920	 1476236	49.9
   921	 1476286	49.9
   922	 1476336	49.9
   923	 1476386	49.9
   924	 1476436	49.9
   925	 1476486	49.9
   926	 1476536	50.1
   927	 1476586	50.1
   928	 1476636	50.1
   929	 1476686	50.1
   930	 1476748	50.1
   931	 1476796	50.1
   932	 1476846	50.1
   933	 1476892	50.1
   934	 1476936	50.1
   935	 1476988	50.1
   936	 1477036	50.1
   937	 1477086	50.1
   938	 1477138	50.1
   939	 1477188	50.1
   940	 1477238	50.1
   941	 1477286	50.1
   942	 1477336	50.1
   943	 1477386	49.9
   944	 1477452	50.1
   945	 1477502	50.1
   946	 1477550	49.9
   947	 1477592	49.9
   948	 1477638	49.9
   949	 1477686	50.1
   950	 1477736	50.1
   951	 1477786	50.1
