Number	Time	Temperature
     1	    9570	60.0
     2	    9620	60.0
     3	    9670	28.9
     4	    9720	29.1
     5	    9770	28.9
     6	    9820	29.3
     7	    9870	29.5
     8	    9928	29.8
     9	    9975	30.4
    10	   10021	31.5
    11	   10070	32.4
    12	   10120	33.0
    13	   10170	33.9
    14	   10220	34.6
    15	   10269	35.6
    16	   10319	36.4
    17	   10369	37.3
    18	   10420	38.2
    19	   10470	39.2
    20	   10520	39.9
    21	   10570	40.9
    22	   10620	41.6
    23	   10680	42.5
    24	   10726	43.3
    25	   10773	44.8
    26	   10822	45.7
    27	   10870	46.4
    28	   10920	47.0
    29	   10970	47.7
    30	   11020	48.5
    31	   11069	49.1
    32	   11120	49.8
    33	   11170	50.4
    34	   11220	51.0
    35	   11270	51.5
    36	   11330	51.8
    37	   11376	52.2
    38	   11422	52.3
    39	   11470	52.3
    40	   11520	52.2
    41	   11570	52.1
    42	   11620	51.8
    43	   11670	51.5
    44	   11720	51.2
    45	   11770	51.0
    46	   11820	50.7
    47	   11870	50.3
    48	   11922	49.9
    49	   11970	49.5
    50	   12020	49.2
    51	   12070	49.1
    52	   12130	49.0
    53	   12176	48.8
    54	   12224	48.8
    55	   12270	48.8
    56	   12320	48.8
    57	   12370	48.8
    58	   12420	49.0
    59	   12470	49.1
    60	   12520	49.1
    61	   12570	49.4
    62	   12620	49.5
    63	   12670	49.7
    64	   12720	49.7
    65	   12769	49.8
    66	   12828	49.8
    67	   12874	49.8
    68	   12920	49.8
    69	   12970	49.8
    70	   13020	49.7
    71	   13070	49.7
    72	   13120	49.5
    73	   13170	49.4
    74	   13220	49.2
    75	   13270	49.1
    76	   13320	49.1
    77	   13370	49.1
    78	   13420	49.1
    79	   13470	49.1
    80	   13521	49.2
    81	   13570	49.4
    82	   13620	49.4
    83	   13678	49.5
    84	   13724	49.7
    85	   13770	49.8
    86	   13820	49.9
    87	   13870	49.9
    88	   13920	49.9
    89	   13970	49.9
    90	   14020	49.7
    91	   14070	49.9
    92	   14120	49.8
    93	   14170	49.8
    94	   14220	49.7
    95	   14284	49.7
    96	   14328	49.7
    97	   14374	49.5
    98	   14421	49.4
    99	   14469	49.4
   100	   14520	49.4
   101	   14570	49.4
   102	   14620	49.4
   103	   14670	49.4
   104	   14720	49.5
   105	   14770	49.5
   106	   14820	49.7
   107	   14870	49.7
   108	   14920	49.8
   109	   14970	48.8
   110	   15020	49.8
   111	   15070	49.9
   112	   15120	49.9
   113	   15182	49.9
   114	   15226	49.9
   115	   15271	49.9
   116	   15320	49.9
   117	   15370	49.8
   118	   15420	49.8
   119	   15470	49.8
   120	   15519	49.7
   121	   15570	49.4
   122	   15620	49.7
   123	   15670	49.7
   124	   15720	49.5
   125	   15770	49.5
   126	   15830	49.5
   127	   15878	49.5
   128	   15925	49.7
   129	   15970	49.8
   130	   16020	49.8
   131	   16070	49.9
   132	   16120	49.9
   133	   16170	49.9
   134	   16220	50.1
   135	   16270	49.9
   136	   16320	50.1
   137	   16370	50.1
   138	   16420	50.1
   139	   16470	49.9
   140	   16522	49.9
   141	   16570	49.9
   142	   16630	49.5
   143	   16678	49.8
   144	   16722	49.7
   145	   16770	49.7
   146	   16820	49.7
   147	   16870	49.7
   148	   16920	49.7
   149	   16970	49.7
   150	   17020	49.2
   151	   17070	49.8
   152	   17120	49.8
   153	   17170	49.9
   154	   17220	49.9
   155	   17270	49.9
   156	   17320	50.1
   157	   17370	50.1
   158	   17419	50.1
   159	   17480	50.1
   160	   17528	50.1
   161	   17576	50.1
   162	   17620	50.1
   163	   17670	50.1
   164	   17720	50.1
   165	   17770	49.9
   166	   17820	49.9
   167	   17870	49.8
   168	   17920	49.8
   169	   17969	49.8
   170	   18020	49.8
   171	   18070	49.8
   172	   18132	49.8
   173	   18180	49.7
   174	   18226	49.8
   175	   18271	49.8
   176	   18319	49.9
   177	   18370	49.9
   178	   18420	49.9
   179	   18470	50.1
   180	   18520	50.1
   181	   18572	50.1
   182	   18620	50.1
   183	   18670	50.1
   184	   18720	50.1
   185	   18778	50.1
   186	   18826	50.1
   187	   18870	50.1
   188	   18920	50.1
   189	   18980	50.1
   190	   19026	50.1
   191	   19072	49.9
   192	   19119	49.9
   193	   19170	49.9
   194	   19220	49.8
   195	   19270	49.9
   196	   19320	49.9
   197	   19370	49.9
   198	   19420	49.9
   199	   19470	49.9
   200	   19520	50.1
   201	   19580	50.1
   202	   19626	50.1
   203	   19670	50.1
   204	   19720	50.1
   205	   19770	50.1
   206	   19820	50.1
   207	   19870	50.1
   208	   19920	50.1
   209	   19970	50.1
   210	   20020	50.1
   211	   20070	49.9
   212	   20120	49.9
   213	   20170	49.9
   214	   20219	49.9
   215	   20269	49.9
   216	   20320	49.8
   217	   20373	49.8
   218	   20424	49.7
   219	   20471	49.7
   220	   20519	49.7
   221	   20570	49.5
   222	   20620	49.5
   223	   20670	49.5
   224	   20720	49.5
   225	   20770	49.5
   226	   20820	49.5
   227	   20870	49.4
   228	   20920	49.7
   229	   20970	49.7
   230	   21030	49.8
   231	   21078	49.8
   232	   21122	49.9
   233	   21170	49.9
   234	   21220	49.9
   235	   21270	49.9
   236	   21320	49.9
   237	   21370	49.9
   238	   21420	49.9
   239	   21470	49.8
   240	   21526	49.8
   241	   21574	49.8
   242	   21620	49.7
   243	   21670	49.7
   244	   21720	49.7
   245	   21770	49.7
   246	   21820	49.7
   247	   21870	49.7
   248	   21919	49.7
   249	   21970	49.2
   250	   22020	49.2
   251	   22070	49.8
   252	   22130	49.8
   253	   22177	49.8
   254	   22221	49.8
   255	   22270	49.9
   256	   22321	49.9
   257	   22370	49.9
   258	   22420	49.9
   259	   22470	50.1
   260	   22520	49.9
   261	   22570	50.1
   262	   22620	49.9
   263	   22670	49.9
   264	   22729	49.9
   265	   22778	49.9
   266	   22826	49.9
   267	   22872	49.9
   268	   22920	49.8
   269	   22979	49.8
   270	   23026	49.8
   271	   23074	49.7
   272	   23120	49.8
   273	   23170	49.8
   274	   23220	49.8
   275	   23270	49.8
   276	   23320	49.8
   277	   23370	49.8
   278	   23420	49.8
   279	   23470	49.8
   280	   23522	49.8
   281	   23582	49.8
   282	   23628	49.8
   283	   23673	49.9
   284	   23719	49.9
   285	   23770	49.9
   286	   23820	49.9
   287	   23870	49.9
   288	   23920	49.9
   289	   23970	49.9
   290	   24020	49.9
   291	   24070	49.9
   292	   24120	49.9
   293	   24170	49.9
   294	   24220	49.9
   295	   24270	49.9
   296	   24320	49.9
   297	   24370	49.9
   298	   24430	49.9
   299	   24476	49.9
   300	   24522	49.9
   301	   24570	49.9
   302	   24620	49.8
   303	   24670	49.9
   304	   24720	49.9
   305	   24770	49.9
   306	   24820	49.9
   307	   24870	49.9
   308	   24920	49.9
   309	   24970	49.9
   310	   25030	49.9
   311	   25076	49.9
   312	   25121	50.1
   313	   25170	50.1
   314	   25230	50.1
   315	   25276	50.1
   316	   25322	50.1
   317	   25369	50.1
   318	   25420	50.1
   319	   25470	50.1
   320	   25522	49.9
   321	   25570	49.9
   322	   25620	49.9
   323	   25670	49.9
   324	   25720	49.8
   325	   25770	49.9
   326	   25820	49.9
   327	   25880	49.9
   328	   25926	49.9
   329	   25972	49.9
   330	   26020	49.9
   331	   26070	49.9
   332	   26120	49.9
   333	   26170	49.9
   334	   26220	50.1
   335	   26270	50.1
   336	   26320	50.1
   337	   26370	50.1
   338	   26420	50.1
   339	   26470	50.1
   340	   26521	50.1
   341	   26570	50.1
   342	   26620	49.9
   343	   26682	49.9
   344	   26730	49.9
   345	   26776	49.9
   346	   26822	49.9
   347	   26870	49.9
   348	   26920	49.9
   349	   26970	49.9
   350	   27020	49.9
   351	   27070	49.9
   352	   27120	49.8
   353	   27170	47.6
   354	   27220	50.1
   355	   27270	50.1
   356	   27320	50.1
   357	   27380	50.1
   358	   27426	50.1
   359	   27471	50.1
   360	   27522	50.1
   361	   27569	50.1
   362	   27620	50.1
   363	   27670	49.9
   364	   27720	49.9
   365	   27770	49.9
   366	   27820	49.9
   367	   27870	49.9
   368	   27920	49.9
   369	   27970	49.9
   370	   28029	49.8
   371	   28073	49.9
   372	   28122	49.9
   373	   28169	49.9
   374	   28220	49.9
   375	   28278	50.1
   376	   28321	50.1
   377	   28370	50.1
   378	   28420	50.1
   379	   28470	50.1
   380	   28520	50.1
   381	   28570	50.1
   382	   28620	50.1
   383	   28670	50.1
   384	   28720	50.1
   385	   28770	50.1
   386	   28820	50.1
   387	   28870	50.1
   388	   28928	49.9
   389	   28974	49.9
   390	   29022	49.9
   391	   29070	49.9
   392	   29120	49.9
   393	   29170	49.9
   394	   29220	49.4
   395	   29270	49.9
   396	   29320	49.9
   397	   29370	49.9
   398	   29419	50.1
   399	   29470	50.1
   400	   29521	50.1
   401	   29578	50.1
   402	   29624	50.1
   403	   29670	50.1
   404	   29720	50.1
   405	   29770	50.1
   406	   29824	50.1
   407	   29872	50.1
   408	   29920	50.1
   409	   29970	50.1
   410	   30020	50.1
   411	   30070	49.9
   412	   30120	49.9
   413	   30170	49.9
   414	   30220	49.9
   415	   30270	49.9
   416	   30332	49.9
   417	   30378	49.9
   418	   30424	49.9
   419	   30469	49.9
   420	   30522	49.9
   421	   30570	49.9
   422	   30620	50.1
   423	   30670	50.1
   424	   30720	50.1
   425	   30770	50.1
   426	   30820	50.1
   427	   30870	49.7
   428	   30919	50.1
   429	   30970	50.1
   430	   31020	50.1
   431	   31070	50.1
   432	   31120	49.7
   433	   31182	50.1
   434	   31227	50.1
   435	   31272	49.9
   436	   31322	49.9
   437	   31370	49.9
   438	   31420	49.9
   439	   31470	49.9
   440	   31519	49.9
   441	   31570	49.9
   442	   31620	49.9
   443	   31670	49.9
   444	   31720	50.1
   445	   31770	50.1
   446	   31828	50.1
   447	   31874	50.1
   448	   31920	50.1
   449	   31970	50.1
   450	   32020	50.1
   451	   32074	50.1
   452	   32123	50.1
   453	   32170	50.1
   454	   32230	50.1
   455	   32276	50.1
   456	   32324	50.1
   457	   32370	50.1
   458	   32420	49.8
   459	   32470	49.9
   460	   32519	49.9
   461	   32570	49.9
   462	   32619	49.9
   463	   32670	49.9
   464	   32720	50.1
   465	   32770	50.1
   466	   32831	50.1
   467	   32878	50.1
   468	   32924	50.1
   469	   32969	50.1
   470	   33020	50.1
   471	   33070	50.1
   472	   33120	50.1
   473	   33170	50.1
   474	   33222	50.1
   475	   33270	50.1
   476	   33320	50.1
   477	   33370	50.1
   478	   33420	49.9
   479	   33470	49.9
   480	   33522	49.8
   481	   33570	49.9
   482	   33620	49.8
   483	   33680	49.8
   484	   33724	49.8
   485	   33772	49.9
   486	   33819	49.9
   487	   33870	50.1
   488	   33920	50.1
   489	   33970	50.1
   490	   34020	50.1
   491	   34069	50.1
   492	   34120	50.1
   493	   34169	50.1
   494	   34220	50.3
   495	   34280	50.1
   496	   34326	50.1
   497	   34373	50.1
   498	   34420	50.1
   499	   34480	49.7
   500	   34524	50.1
   501	   34571	50.1
   502	   34619	50.1
   503	   34670	50.1
   504	   34720	50.1
   505	   34770	50.1
   506	   34820	49.9
   507	   34870	49.9
   508	   34920	49.9
   509	   34970	49.9
   510	   35020	49.9
   511	   35080	49.9
   512	   35128	49.9
   513	   35172	50.1
   514	   35219	50.1
   515	   35270	50.1
   516	   35320	50.1
   517	   35370	50.1
   518	   35420	50.1
   519	   35470	50.1
   520	   35519	50.1
   521	   35570	50.1
   522	   35619	50.1
   523	   35670	50.1
   524	   35720	50.1
   525	   35770	50.1
   526	   35820	50.1
   527	   35870	50.1
   528	   35930	49.9
   529	   35976	49.9
   530	   36021	49.9
   531	   36070	49.9
   532	   36120	49.8
   533	   36170	49.9
   534	   36220	49.9
   535	   36270	49.9
   536	   36320	49.9
   537	   36370	50.1
   538	   36420	50.1
   539	   36470	50.1
   540	   36530	50.1
   541	   36578	50.1
   542	   36624	50.1
   543	   36669	50.1
   544	   36720	50.1
   545	   36778	49.9
   546	   36826	49.9
   547	   36870	49.9
   548	   36920	49.8
   549	   36970	49.8
   550	   37020	49.8
   551	   37070	49.8
   552	   37120	49.8
   553	   37169	49.8
   554	   37220	49.8
   555	   37270	49.8
   556	   37320	49.8
   557	   37380	49.8
   558	   37428	49.8
   559	   37473	49.8
   560	   37522	49.8
   561	   37570	49.9
   562	   37620	49.8
   563	   37670	49.9
   564	   37720	49.9
   565	   37770	49.9
   566	   37820	49.9
   567	   37870	49.9
   568	   37920	49.9
   569	   37982	50.1
   570	   38024	49.9
   571	   38070	49.9
   572	   38120	49.5
   573	   38180	49.9
   574	   38227	49.9
   575	   38271	49.8
   576	   38321	50.1
   577	   38370	50.1
   578	   38420	49.9
   579	   38470	50.1
   580	   38520	50.1
   581	   38570	49.9
   582	   38620	50.1
   583	   38670	50.1
   584	   38720	50.1
   585	   38770	50.1
   586	   38831	49.9
   587	   38876	49.9
   588	   38921	49.9
   589	   38970	49.9
   590	   39020	49.7
   591	   39070	49.9
   592	   39120	49.9
   593	   39170	49.9
   594	   39220	49.9
   595	   39270	49.9
   596	   39320	49.9
   597	   39370	49.9
   598	   39420	49.9
   599	   39470	49.9
   600	   39521	49.9
   601	   39570	49.9
   602	   39628	49.9
   603	   39674	49.9
   604	   39721	49.9
   605	   39770	49.7
   606	   39820	49.9
   607	   39870	49.9
   608	   39920	49.9
   609	   39970	49.9
   610	   40020	49.9
   611	   40070	49.9
   612	   40120	49.9
   613	   40170	49.9
   614	   40220	49.9
   615	   40270	49.9
   616	   40320	49.9
   617	   40370	49.9
   618	   40430	49.9
   619	   40478	49.9
   620	   40522	49.9
   621	   40570	49.9
   622	   40620	49.9
   623	   40670	49.9
   624	   40720	49.9
   625	   40770	49.9
   626	   40820	50.1
   627	   40870	49.9
   628	   40920	49.9
   629	   40970	50.1
   630	   41030	50.1
   631	   41078	49.9
   632	   41124	50.1
   633	   41169	50.1
   634	   41219	50.1
   635	   41269	49.9
   636	   41320	49.9
   637	   41370	49.9
   638	   41419	49.9
   639	   41470	49.8
   640	   41520	49.8
   641	   41570	49.8
   642	   41620	49.2
   643	   41670	49.8
   644	   41720	49.8
   645	   41770	49.7
   646	   41819	49.8
   647	   41870	49.8
   648	   41928	49.8
   649	   41974	49.8
   650	   42020	49.8
   651	   42070	49.9
   652	   42120	49.9
   653	   42170	49.9
   654	   42220	49.9
   655	   42270	49.9
   656	   42320	50.1
   657	   42370	50.1
   658	   42420	49.9
   659	   42470	49.9
   660	   42530	50.1
   661	   42570	50.1
   662	   42620	50.1
   663	   42670	49.9
   664	   42730	49.9
   665	   42774	49.9
   666	   42820	49.9
   667	   42870	49.8
   668	   42920	49.8
   669	   42970	49.8
   670	   43020	49.8
   671	   43070	49.8
   672	   43120	49.8
   673	   43170	49.8
   674	   43220	49.8
   675	   43270	49.8
   676	   43320	49.9
   677	   43380	49.9
   678	   43424	49.9
   679	   43470	49.9
   680	   43520	49.9
   681	   43570	49.9
   682	   43620	50.1
   683	   43670	50.1
   684	   43720	50.1
   685	   43770	50.1
   686	   43820	50.1
   687	   43870	50.1
   688	   43920	49.9
   689	   43970	49.9
   690	   44020	49.2
   691	   44070	49.9
   692	   44120	49.8
   693	   44170	49.8
   694	   44220	49.8
   695	   44270	49.8
   696	   44320	49.8
   697	   44380	49.8
   698	   44427	49.9
   699	   44474	49.9
   700	   44522	49.9
   701	   44570	49.5
   702	   44620	49.9
   703	   44670	50.1
   704	   44720	50.1
   705	   44769	49.9
   706	   44820	50.1
   707	   44870	50.1
   708	   44919	50.1
   709	   44970	50.1
   710	   45030	50.1
   711	   45078	49.9
   712	   45124	49.9
   713	   45170	49.9
   714	   45220	49.8
   715	   45270	49.8
   716	   45320	49.7
   717	   45370	49.8
   718	   45420	49.8
   719	   45470	49.8
   720	   45520	49.8
   721	   45574	49.8
   722	   45620	49.9
   723	   45670	49.9
   724	   45720	49.9
   725	   45770	50.1
   726	   45820	50.1
   727	   45870	50.1
   728	   45920	50.1
   729	   45970	50.1
   730	   46020	50.1
   731	   46070	50.1
   732	   46130	50.1
   733	   46178	50.1
   734	   46221	50.1
   735	   46270	50.1
   736	   46320	49.9
   737	   46370	49.9
   738	   46420	49.9
   739	   46470	49.9
   740	   46520	49.8
   741	   46569	49.8
   742	   46620	49.8
   743	   46670	49.8
   744	   46720	49.8
   745	   46780	49.8
   746	   46826	49.8
   747	   46870	49.9
   748	   46920	50.1
   749	   46970	50.1
   750	   47020	49.7
   751	   47070	50.1
   752	   47120	50.1
   753	   47182	50.1
   754	   47226	50.1
   755	   47273	50.1
   756	   47321	50.1
   757	   47370	50.1
   758	   47420	50.1
   759	   47470	50.1
   760	   47520	50.1
   761	   47570	49.9
   762	   47620	49.9
   763	   47670	49.9
   764	   47720	49.8
   765	   47770	49.8
   766	   47819	49.8
   767	   47870	49.8
   768	   47923	49.8
   769	   47969	49.8
   770	   48019	49.8
   771	   48069	49.8
   772	   48119	49.9
   773	   48169	49.9
   774	   48219	50.1
   775	   48270	50.1
   776	   48319	50.1
   777	   48370	50.1
   778	   48420	50.1
   779	   48470	50.1
   780	   48522	50.1
   781	   48570	50.1
   782	   48619	50.1
   783	   48669	50.1
   784	   48719	50.1
   785	   48769	50.1
   786	   48820	50.1
   787	   48870	50.1
   788	   48928	49.9
   789	   48969	49.9
   790	   49019	49.9
   791	   49069	49.8
   792	   49119	49.8
   793	   49169	49.8
   794	   49219	49.8
   795	   49269	49.9
   796	   49319	49.9
   797	   49369	49.9
   798	   49419	49.9
   799	   49469	50.1
   800	   49519	50.1
   801	   49569	50.1
   802	   49619	50.1
   803	   49669	50.1
   804	   49719	50.1
   805	   49771	50.1
   806	   49819	50.1
   807	   49869	50.1
   808	   49919	50.1
   809	   49971	50.1
   810	   50019	50.1
   811	   50069	49.9
   812	   50119	49.9
   813	   50170	49.9
   814	   50219	49.8
   815	   50271	49.8
   816	   50319	49.9
   817	   50369	49.8
   818	   50419	49.9
   819	   50471	49.9
   820	   50519	49.8
   821	   50569	49.9
   822	   50619	50.1
   823	   50669	50.1
   824	   50719	50.1
   825	   50769	50.1
   826	   50819	50.1
   827	   50869	50.1
   828	   50919	50.1
   829	   50969	50.1
   830	   51019	50.1
   831	   51069	50.1
   832	   51119	50.1
   833	   51169	50.1
   834	   51219	50.1
   835	   51269	49.9
   836	   51319	49.9
   837	   51369	49.8
   838	   51421	49.8
   839	   51469	49.4
   840	   51519	49.8
   841	   51569	49.9
   842	   51619	49.9
   843	   51669	49.9
   844	   51719	50.1
   845	   51769	50.1
   846	   51819	50.1
   847	   51869	50.1
   848	   51919	50.1
   849	   51969	50.3
   850	   52019	50.3
   851	   52070	50.1
   852	   52120	50.1
   853	   52179	50.1
   854	   52224	50.1
   855	   52272	50.1
   856	   52320	50.1
   857	   52370	50.1
   858	   52420	50.1
   859	   52470	50.1
   860	   52520	50.1
   861	   52570	49.9
   862	   52620	49.9
   863	   52670	49.8
   864	   52720	49.8
   865	   52779	49.8
   866	   52820	49.8
   867	   52870	49.8
   868	   52920	49.7
   869	   52970	49.7
   870	   53020	49.7
   871	   53070	49.7
   872	   53120	49.8
   873	   53180	49.8
   874	   53228	49.8
   875	   53274	49.9
   876	   53320	49.9
   877	   53370	49.9
   878	   53420	49.9
   879	   53470	49.9
   880	   53520	50.1
   881	   53570	50.1
   882	   53620	50.1
   883	   53670	50.1
   884	   53720	50.1
   885	   53770	50.1
   886	   53819	50.1
   887	   53880	49.8
   888	   53928	49.9
   889	   53972	49.9
   890	   54020	49.8
   891	   54070	49.8
   892	   54120	49.8
   893	   54170	49.8
   894	   54219	49.8
   895	   54270	49.8
   896	   54320	49.8
   897	   54370	49.8
   898	   54420	49.9
   899	   54472	49.9
   900	   54522	49.9
   901	   54570	50.1
   902	   54620	50.1
   903	   54672	50.1
   904	   54720	50.1
   905	   54770	50.1
   906	   54820	50.1
   907	   54870	50.1
   908	   54919	50.1
   909	   54969	49.9
   910	   55019	49.9
   911	   55069	49.9
   912	   55119	49.9
   913	   55169	49.8
   914	   55219	49.8
   915	   55269	49.8
   916	   55319	49.8
   917	   55369	49.8
   918	   55419	49.8
   919	   55469	49.9
   920	   55519	49.9
   921	   55569	49.9
   922	   55621	49.9
   923	   55673	50.1
   924	   55721	50.1
   925	   55769	50.1
   926	   55819	50.1
   927	   55869	50.1
   928	   55920	50.1
   929	   55970	50.1
   930	   56020	50.1
   931	   56070	50.1
   932	   56120	49.9
   933	   56170	49.9
   934	   56220	49.9
   935	   56270	49.8
   936	   56329	49.8
   937	   56376	49.8
   938	   56422	49.8
   939	   56470	49.8
   940	   56522	49.9
   941	   56570	49.8
   942	   56620	49.9
   943	   56670	49.9
   944	   56720	50.1
   945	   56770	50.1
   946	   56820	50.1
   947	   56870	50.1
   948	   56919	50.1
   949	   56970	50.1
   950	   57020	50.1
   951	   57070	50.1
