Number	Time	Temperature
     1	 1431136	33.7
     2	 1431186	32.9
     3	 1431236	32.9
     4	 1431286	33.0
     5	 1431346	33.2
     6	 1431398	34.0
     7	 1431446	34.5
     8	 1431486	35.1
     9	 1431536	35.8
    10	 1431586	36.4
    11	 1431636	37.2
    12	 1431686	37.9
    13	 1431736	38.8
    14	 1431786	39.6
    15	 1431836	40.4
    16	 1431886	41.0
    17	 1431936	41.8
    18	 1431986	43.4
    19	 1432036	44.1
    20	 1432086	44.9
    21	 1432136	45.8
    22	 1432186	46.4
    23	 1432250	47.1
    24	 1432296	47.7
    25	 1432336	48.5
    26	 1432386	49.2
    27	 1432436	49.9
    28	 1432486	50.4
    29	 1432536	51.0
    30	 1432586	51.5
    31	 1432636	52.2
    32	 1432686	52.5
    33	 1432736	52.5
    34	 1432786	52.6
    35	 1432836	52.5
    36	 1432886	52.3
    37	 1432936	52.3
    38	 1432986	52.1
    39	 1433036	51.9
    40	 1433086	51.6
    41	 1433136	51.4
    42	 1433186	51.0
    43	 1433236	50.3
    44	 1433286	50.3
    45	 1433336	49.9
    46	 1433386	49.8
    47	 1433436	49.5
    48	 1433486	49.5
    49	 1433536	49.4
    50	 1433594	49.5
    51	 1433642	49.4
    52	 1433691	49.2
    53	 1433739	49.7
    54	 1433786	49.8
    55	 1433836	49.9
    56	 1433886	50.3
    57	 1433936	50.4
    58	 1433986	50.3
    59	 1434036	50.8
    60	 1434086	50.8
    61	 1434136	51.0
    62	 1434187	50.8
    63	 1434236	51.0
    64	 1434286	51.1
    65	 1434346	51.0
    66	 1434392	50.7
    67	 1434440	50.5
    68	 1434486	50.4
    69	 1434536	50.3
    70	 1434586	49.9
    71	 1434636	50.1
    72	 1434686	50.1
    73	 1434736	49.9
    74	 1434786	49.9
    75	 1434836	49.9
    76	 1434886	49.9
    77	 1434936	50.1
    78	 1434986	50.1
    79	 1435046	50.1
    80	 1435092	50.3
    81	 1435138	50.4
    82	 1435186	50.5
    83	 1435236	50.4
    84	 1435286	50.5
    85	 1435336	50.7
    86	 1435386	50.7
    87	 1435436	50.7
    88	 1435486	50.7
    89	 1435536	50.7
    90	 1435586	50.7
    91	 1435636	50.4
    92	 1435686	50.4
    93	 1435736	50.1
    94	 1435786	50.3
    95	 1435836	50.1
    96	 1435892	50.1
    97	 1435940	50.1
    98	 1435988	50.1
    99	 1436038	50.1
   100	 1436086	50.1
   101	 1436136	50.1
   102	 1436186	50.1
   103	 1436236	50.1
   104	 1436286	50.1
   105	 1436336	50.3
   106	 1436386	50.4
   107	 1436436	50.4
   108	 1436496	50.5
   109	 1436546	50.4
   110	 1436592	50.5
   111	 1436640	50.7
   112	 1436688	50.7
   113	 1436738	50.7
   114	 1436786	50.7
   115	 1436836	50.5
   116	 1436886	50.5
   117	 1436936	50.5
   118	 1436986	50.3
   119	 1437038	50.3
   120	 1437086	50.1
   121	 1437136	50.1
   122	 1437186	50.1
   123	 1437246	50.1
   124	 1437290	50.1
   125	 1437336	50.1
   126	 1437386	50.1
   127	 1437436	50.1
   128	 1437486	50.3
   129	 1437536	50.1
   130	 1437586	50.4
   131	 1437636	50.4
   132	 1437686	50.4
   133	 1437736	50.5
   134	 1437786	50.4
   135	 1437836	50.5
   136	 1437886	50.5
   137	 1437944	50.7
   138	 1437992	50.3
   139	 1438040	50.5
   140	 1438086	50.5
   141	 1438136	50.5
   142	 1438186	50.4
   143	 1438236	50.1
   144	 1438286	50.3
   145	 1438336	50.3
   146	 1438386	50.1
   147	 1438436	50.1
   148	 1438486	50.1
   149	 1438536	50.3
   150	 1438586	50.1
   151	 1438646	50.1
   152	 1438694	50.3
   153	 1438790	50.3
   154	 1438836	50.4
   155	 1438886	50.4
   156	 1438936	50.4
   157	 1438986	50.5
   158	 1439036	50.5
   159	 1439086	50.4
   160	 1439136	50.5
   161	 1439186	50.4
   162	 1439236	50.3
   163	 1439286	50.4
   164	 1439336	50.3
   165	 1439386	50.3
   166	 1439436	50.3
   167	 1439496	50.3
   168	 1439542	50.1
   169	 1439594	50.1
   170	 1439638	50.1
   171	 1439686	50.3
   172	 1439736	50.3
   173	 1439786	50.1
   174	 1439836	50.3
   175	 1439886	50.4
   176	 1439936	50.4
   177	 1439986	50.4
   178	 1440038	50.1
   179	 1440086	50.4
   180	 1440136	50.4
   181	 1440186	50.1
   182	 1440236	50.3
   183	 1440296	50.4
   184	 1440344	50.3
   185	 1440390	50.3
   186	 1440436	50.3
   187	 1440486	50.3
   188	 1440536	50.1
   189	 1440586	50.3
   190	 1440636	50.3
   191	 1440686	50.1
   192	 1440736	50.3
   193	 1440786	50.4
   194	 1440836	50.3
   195	 1440886	50.3
   196	 1440936	50.4
   197	 1440986	50.4
   198	 1441038	50.4
   199	 1441086	50.3
   200	 1441136	50.4
   201	 1441186	50.3
   202	 1441236	50.3
   203	 1441286	50.3
   204	 1441336	50.3
   205	 1441392	50.1
   206	 1441438	50.1
   207	 1441486	49.8
   208	 1441536	50.1
   209	 1441586	50.1
   210	 1441636	49.9
   211	 1441686	50.1
   212	 1441736	50.1
   213	 1441786	50.3
   214	 1441836	50.1
   215	 1441886	50.3
   216	 1441936	50.4
   217	 1441986	50.4
   218	 1442046	50.5
   219	 1442094	50.3
   220	 1442142	50.5
   221	 1442188	50.5
   222	 1442236	50.5
   223	 1442288	50.5
   224	 1442336	50.4
   225	 1442386	50.4
   226	 1442436	50.3
   227	 1442492	50.3
   228	 1442538	50.3
   229	 1442586	50.1
   230	 1442642	50.1
   231	 1442692	50.1
   232	 1442742	50.1
   233	 1442786	50.1
   234	 1442836	50.1
   235	 1442886	50.1
   236	 1442936	50.3
   237	 1442986	50.3
   238	 1443036	50.3
   239	 1443090	50.1
   240	 1443138	50.3
   241	 1443186	50.3
   242	 1443236	50.4
   243	 1443286	50.4
   244	 1443336	50.4
   245	 1443386	50.3
   246	 1443436	50.4
   247	 1443486	50.4
   248	 1443546	50.4
   249	 1443594	50.3
   250	 1443638	50.3
   251	 1443686	50.1
   252	 1443736	50.3
   253	 1443786	50.1
   254	 1443836	50.1
   255	 1443886	50.1
   256	 1443936	50.1
   257	 1443986	50.1
   258	 1444038	50.1
   259	 1444086	50.1
   260	 1444136	50.1
   261	 1444186	50.1
   262	 1444246	50.1
   263	 1444294	50.1
   264	 1444344	50.3
   265	 1444390	50.4
   266	 1444436	50.4
   267	 1444486	50.3
   268	 1444536	50.4
   269	 1444586	50.4
   270	 1444636	50.3
   271	 1444686	50.3
   272	 1444736	50.1
   273	 1444786	50.3
   274	 1444836	49.9
   275	 1444886	50.1
   276	 1444936	50.1
   277	 1444998	50.1
   278	 1445042	50.1
   279	 1445090	50.1
   280	 1445138	50.1
   281	 1445186	50.1
   282	 1445236	50.1
   283	 1445286	50.1
   284	 1445336	50.1
   285	 1445386	50.3
   286	 1445436	50.3
   287	 1445486	50.3
   288	 1445536	50.3
   289	 1445586	50.3
   290	 1445636	50.3
   291	 1445686	50.3
   292	 1445736	50.3
   293	 1445786	50.1
   294	 1445846	50.3
   295	 1445894	50.1
   296	 1445940	50.1
   297	 1445988	50.1
   298	 1446036	50.1
   299	 1446086	50.1
   300	 1446138	50.1
   301	 1446186	50.1
   302	 1446236	50.1
   303	 1446285	50.1
   304	 1446336	49.9
   305	 1446386	50.1
   306	 1446436	50.1
   307	 1446486	50.1
   308	 1446536	50.1
   309	 1446586	50.1
   310	 1446636	50.3
   311	 1446686	50.3
   312	 1446736	50.3
   313	 1446786	50.1
   314	 1446836	50.3
   315	 1446886	50.3
   316	 1446936	50.3
   317	 1446986	50.3
   318	 1447038	50.3
   319	 1447086	50.1
   320	 1447136	50.3
   321	 1447186	50.3
   322	 1447236	50.1
   323	 1447288	50.1
   324	 1447336	50.1
   325	 1447394	50.1
   326	 1447444	50.1
   327	 1447488	50.1
   328	 1447536	49.7
   329	 1447586	50.1
   330	 1447636	50.1
   331	 1447686	50.1
   332	 1447738	50.1
   333	 1447788	50.3
   334	 1447836	50.3
   335	 1447886	50.3
   336	 1447936	49.9
   337	 1447986	50.3
   338	 1448038	50.3
   339	 1448094	50.3
   340	 1448144	50.3
   341	 1448194	50.3
   342	 1448242	50.3
   343	 1448290	50.1
   344	 1448336	50.3
   345	 1448386	50.1
   346	 1448436	50.3
   347	 1448486	50.1
   348	 1448536	50.3
   349	 1448586	50.1
   350	 1448636	50.1
   351	 1448686	50.3
   352	 1448736	50.1
   353	 1448792	50.1
   354	 1448840	50.3
   355	 1448888	50.1
   356	 1448936	50.3
   357	 1448986	50.3
   358	 1449036	50.3
   359	 1449086	50.3
   360	 1449136	50.3
   361	 1449186	50.3
   362	 1449236	50.3
   363	 1449286	50.3
   364	 1449336	50.1
   365	 1449388	50.1
   366	 1449436	49.9
   367	 1449486	50.1
   368	 1449536	50.1
   369	 1449586	49.9
   370	 1449646	50.1
   371	 1449692	50.1
   372	 1449738	50.1
   373	 1449786	50.1
   374	 1449836	50.1
   375	 1449886	50.1
   376	 1449936	50.1
   377	 1449986	50.1
   378	 1450036	50.1
   379	 1450086	50.1
   380	 1450136	50.3
   381	 1450186	50.3
   382	 1450236	50.3
   383	 1450286	50.3
   384	 1450336	50.3
   385	 1450386	50.3
   386	 1450446	50.3
   387	 1450498	50.4
   388	 1450544	50.3
   389	 1450592	50.1
   390	 1450640	50.3
   391	 1450686	50.3
   392	 1450736	50.3
   393	 1450786	50.3
   394	 1450836	50.3
   395	 1450886	50.3
   396	 1450936	50.1
   397	 1450986	50.1
   398	 1451036	50.1
   399	 1451086	50.1
   400	 1451136	50.1
   401	 1451186	50.1
   402	 1451250	49.9
   403	 1451294	50.1
   404	 1451342	49.8
   405	 1451390	50.1
   406	 1451436	49.8
   407	 1451486	50.1
   408	 1451536	50.1
   409	 1451586	50.1
   410	 1451636	50.1
   411	 1451686	50.1
   412	 1451736	50.1
   413	 1451786	50.1
   414	 1451836	50.3
   415	 1451886	50.1
   416	 1451946	50.3
   417	 1451994	50.3
   418	 1452046	50.3
   419	 1452088	50.3
   420	 1452136	50.3
   421	 1452196	50.3
   422	 1452244	50.1
   423	 1452292	50.1
   424	 1452338	50.1
   425	 1452386	49.9
   426	 1452446	50.1
   427	 1452488	50.1
   428	 1452536	49.9
   429	 1452586	50.1
   430	 1452636	50.1
   431	 1452686	49.9
   432	 1452736	50.1
   433	 1452786	50.1
   434	 1452836	50.1
   435	 1452886	49.9
   436	 1452936	50.1
   437	 1453000	50.1
   438	 1453044	50.1
   439	 1453090	50.1
   440	 1453138	50.1
   441	 1453186	50.3
   442	 1453236	50.1
   443	 1453286	50.1
   444	 1453336	50.3
   445	 1453386	50.3
   446	 1453436	50.1
   447	 1453486	50.1
   448	 1453536	50.1
   449	 1453586	50.1
   450	 1453636	50.1
   451	 1453686	49.9
   452	 1453744	50.1
   453	 1453786	50.1
   454	 1453836	50.1
   455	 1453886	50.1
   456	 1453946	50.1
   457	 1453986	50.1
   458	 1454036	50.1
   459	 1454086	50.1
   460	 1454136	49.9
   461	 1454186	50.1
   462	 1454236	50.1
   463	 1454286	49.9
   464	 1454336	50.1
   465	 1454386	50.1
   466	 1454436	50.1
   467	 1454498	50.1
   468	 1454544	50.1
   469	 1454590	50.1
   470	 1454638	50.1
   471	 1454686	50.1
   472	 1454736	50.1
   473	 1454786	50.1
   474	 1454836	50.1
   475	 1454886	50.1
   476	 1454936	50.1
   477	 1454986	50.1
   478	 1455038	50.1
   479	 1455086	50.1
   480	 1455136	50.1
   481	 1455186	49.9
   482	 1455244	50.1
   483	 1455292	50.1
   484	 1455338	50.1
   485	 1455386	49.9
   486	 1455436	50.1
   487	 1455486	50.1
   488	 1455536	50.1
   489	 1455586	50.1
   490	 1455636	50.1
   491	 1455686	50.1
   492	 1455736	50.1
   493	 1455786	50.1
   494	 1455836	50.1
   495	 1455886	50.1
   496	 1455936	50.1
   497	 1455986	50.1
   498	 1456038	50.1
   499	 1456086	50.1
   500	 1456136	50.1
   501	 1456186	50.1
   502	 1456236	49.9
   503	 1456294	50.1
   504	 1456336	50.1
   505	 1456388	50.1
   506	 1456436	50.1
   507	 1456486	50.1
   508	 1456536	50.1
   509	 1456586	50.1
   510	 1456636	50.1
   511	 1456686	50.1
   512	 1456736	50.1
   513	 1456786	50.1
   514	 1456836	50.1
   515	 1456886	50.1
   516	 1456936	50.1
   517	 1456986	50.1
   518	 1457048	50.1
   519	 1457094	49.9
   520	 1457142	49.8
   521	 1457186	50.1
   522	 1457236	50.1
   523	 1457286	50.1
   524	 1457336	50.1
   525	 1457386	50.1
   526	 1457436	50.1
   527	 1457486	50.1
   528	 1457536	50.1
   529	 1457586	49.9
   530	 1457636	50.1
   531	 1457686	50.1
   532	 1457736	50.1
   533	 1457786	50.1
   534	 1457846	50.1
   535	 1457892	50.1
   536	 1457938	50.1
   537	 1457986	50.1
   538	 1458036	50.1
   539	 1458086	50.1
   540	 1458136	50.1
   541	 1458186	50.1
   542	 1458236	50.1
   543	 1458287	50.1
   544	 1458338	50.1
   545	 1458386	50.1
   546	 1458436	50.1
   547	 1458486	49.8
   548	 1458536	49.9
   549	 1458596	49.9
   550	 1458642	49.9
   551	 1458690	49.9
   552	 1458736	49.9
   553	 1458786	50.1
   554	 1458836	50.1
   555	 1458886	50.1
   556	 1458936	50.1
   557	 1458986	50.1
   558	 1459038	50.1
   559	 1459086	50.1
   560	 1459136	50.1
   561	 1459185	50.1
   562	 1459236	50.1
   563	 1459287	50.1
   564	 1459336	50.1
   565	 1459394	50.1
   566	 1459436	50.1
   567	 1459492	50.1
   568	 1459540	50.1
   569	 1459586	49.8
   570	 1459636	50.1
   571	 1459686	49.9
   572	 1459736	50.1
   573	 1459786	49.9
   574	 1459836	50.1
   575	 1459886	50.1
   576	 1459936	50.1
   577	 1459986	50.1
   578	 1460038	50.1
   579	 1460086	50.1
   580	 1460144	50.1
   581	 1460190	50.1
   582	 1460236	50.1
   583	 1460286	50.1
   584	 1460336	50.1
   585	 1460386	50.1
   586	 1460436	50.1
   587	 1460486	49.8
   588	 1460536	50.1
   589	 1460586	49.9
   590	 1460636	50.1
   591	 1460686	50.1
   592	 1460736	50.1
   593	 1460786	49.9
   594	 1460846	49.9
   595	 1460894	50.1
   596	 1460938	50.1
   597	 1460986	50.1
   598	 1461036	50.1
   599	 1461086	50.1
   600	 1461136	50.1
   601	 1461186	50.1
   602	 1461236	50.1
   603	 1461286	50.1
   604	 1461336	50.1
   605	 1461386	50.1
   606	 1461436	50.1
   607	 1461486	50.1
   608	 1461536	49.9
   609	 1461596	49.8
   610	 1461644	49.8
   611	 1461692	49.7
   612	 1461736	49.9
   613	 1461786	49.9
   614	 1461836	49.8
   615	 1461886	49.9
   616	 1461936	50.1
   617	 1461986	50.1
   618	 1462036	50.1
   619	 1462086	50.1
   620	 1462136	50.1
   621	 1462186	50.1
   622	 1462236	50.1
   623	 1462286	50.1
   624	 1462346	50.3
   625	 1462394	50.1
   626	 1462438	50.1
   627	 1462486	50.1
   628	 1462536	50.1
   629	 1462586	50.1
   630	 1462636	50.1
   631	 1462686	50.1
   632	 1462736	50.1
   633	 1462786	49.8
   634	 1462836	49.9
   635	 1462886	49.9
   636	 1462936	49.9
   637	 1462986	49.9
   638	 1463038	49.9
   639	 1463086	50.1
   640	 1463136	49.8
   641	 1463186	50.1
   642	 1463236	50.1
   643	 1463286	50.1
   644	 1463336	50.1
   645	 1463386	50.1
   646	 1463436	50.1
   647	 1463486	50.1
   648	 1463546	50.1
   649	 1463596	50.1
   650	 1463642	50.1
   651	 1463694	50.1
   652	 1463738	50.1
   653	 1463786	50.1
   654	 1463836	50.1
   655	 1463886	49.7
   656	 1463936	49.9
   657	 1463990	50.1
   658	 1464036	49.9
   659	 1464086	49.8
   660	 1464136	49.9
   661	 1464186	49.9
   662	 1464236	49.7
   663	 1464286	49.8
   664	 1464336	49.9
   665	 1464386	49.9
   666	 1464436	50.1
   667	 1464486	50.1
   668	 1464546	50.1
   669	 1464586	50.1
   670	 1464636	50.1
   671	 1464686	50.1
   672	 1464736	50.1
   673	 1464786	50.1
   674	 1464836	50.1
   675	 1464886	50.1
   676	 1464946	50.1
   677	 1464986	50.1
   678	 1465036	50.1
   679	 1465086	50.1
   680	 1465136	50.1
   681	 1465186	50.1
   682	 1465236	50.1
   683	 1465286	50.1
   684	 1465336	50.1
   685	 1465386	50.1
   686	 1465436	50.1
   687	 1465486	50.1
   688	 1465536	50.1
   689	 1465586	50.1
   690	 1465646	50.1
   691	 1465692	50.1
   692	 1465742	50.1
   693	 1465786	50.1
   694	 1465836	50.1
   695	 1465886	50.1
   696	 1465936	49.9
   697	 1465986	49.8
   698	 1466036	50.1
   699	 1466086	50.1
   700	 1466136	50.1
   701	 1466198	50.1
   702	 1466243	50.1
   703	 1466286	50.1
   704	 1466336	50.1
   705	 1466386	50.1
   706	 1466446	50.1
   707	 1466486	49.7
   708	 1466546	50.1
   709	 1466586	50.1
   710	 1466636	50.1
   711	 1466686	50.1
   712	 1466746	50.1
   713	 1466792	50.1
   714	 1466840	50.1
   715	 1466888	50.1
   716	 1466936	50.1
   717	 1466986	50.1
   718	 1467036	49.8
   719	 1467086	50.1
   720	 1467136	49.9
   721	 1467186	50.1
   722	 1467236	50.1
   723	 1467286	50.1
   724	 1467336	50.1
   725	 1467386	50.1
   726	 1467436	50.1
   727	 1467486	50.1
   728	 1467536	50.1
   729	 1467586	50.1
   730	 1467636	50.1
   731	 1467686	50.1
   732	 1467742	50.1
   733	 1467786	50.1
   734	 1467836	50.1
   735	 1467886	50.1
   736	 1467942	50.1
   737	 1467992	50.1
   738	 1468040	49.9
   739	 1468086	50.1
   740	 1468136	50.1
   741	 1468186	49.9
   742	 1468236	50.1
   743	 1468286	50.1
   744	 1468336	50.1
   745	 1468386	50.1
   746	 1468436	50.1
   747	 1468486	50.1
   748	 1468536	50.1
   749	 1468586	50.1
   750	 1468636	50.1
   751	 1468686	50.1
   752	 1468736	50.1
   753	 1468786	50.1
   754	 1468836	50.1
   755	 1468886	49.9
   756	 1468950	50.1
   757	 1468992	50.1
   758	 1469040	50.1
   759	 1469086	50.1
   760	 1469136	50.1
   761	 1469186	50.1
   762	 1469236	49.9
   763	 1469286	49.9
   764	 1469336	49.9
   765	 1469386	49.9
   766	 1469436	49.5
   767	 1469486	49.9
   768	 1469536	49.9
   769	 1469586	49.8
   770	 1469636	50.1
   771	 1469686	50.1
   772	 1469736	50.1
   773	 1469786	50.1
   774	 1469836	50.1
   775	 1469886	50.1
   776	 1469936	50.1
   777	 1469986	50.1
   778	 1470048	50.1
   779	 1470094	50.1
   780	 1470142	50.1
   781	 1470190	50.1
   782	 1470236	50.1
   783	 1470288	50.1
   784	 1470336	50.1
   785	 1470386	50.1
   786	 1470436	50.1
   787	 1470486	49.9
   788	 1470536	50.1
   789	 1470586	49.9
   790	 1470636	49.9
   791	 1470686	49.9
   792	 1470736	49.9
   793	 1470787	49.8
   794	 1470846	50.1
   795	 1470894	49.9
   796	 1470942	50.1
   797	 1470988	49.9
   798	 1471036	50.1
   799	 1471086	50.1
   800	 1471136	50.1
   801	 1471186	50.1
   802	 1471236	50.1
   803	 1471286	50.1
   804	 1471336	50.1
   805	 1471386	50.1
   806	 1471436	49.9
   807	 1471486	50.1
   808	 1471548	50.1
   809	 1471594	50.1
   810	 1471636	50.1
   811	 1471686	50.1
   812	 1471736	50.1
   813	 1471786	50.1
   814	 1471836	50.1
   815	 1471886	50.1
   816	 1471936	49.9
   817	 1471986	49.9
   818	 1472038	49.9
   819	 1472086	50.1
   820	 1472136	50.1
   821	 1472186	50.1
   822	 1472236	50.1
   823	 1472286	50.1
   824	 1472344	50.1
   825	 1472394	49.9
   826	 1472438	50.1
   827	 1472486	50.1
   828	 1472536	50.1
   829	 1472586	49.8
   830	 1472636	50.1
   831	 1472686	49.9
   832	 1472736	50.1
   833	 1472786	49.9
   834	 1472836	50.1
   835	 1472886	50.1
   836	 1472936	50.1
   837	 1472986	50.1
   838	 1473046	50.1
   839	 1473086	50.1
   840	 1473136	49.7
   841	 1473186	49.9
   842	 1473236	50.1
   843	 1473286	50.1
   844	 1473336	49.9
   845	 1473386	50.1
   846	 1473436	49.9
   847	 1473486	50.1
   848	 1473536	50.1
   849	 1473586	50.1
   850	 1473636	50.1
   851	 1473686	50.1
   852	 1473746	50.1
   853	 1473786	50.1
   854	 1473836	50.1
   855	 1473886	50.1
   856	 1473940	50.1
   857	 1473986	50.1
   858	 1474036	49.9
   859	 1474086	50.1
   860	 1474136	50.1
   861	 1474186	50.1
   862	 1474236	50.1
   863	 1474286	49.9
   864	 1474336	50.1
   865	 1474386	50.1
   866	 1474436	50.1
   867	 1474486	50.1
   868	 1474538	50.1
   869	 1474586	50.1
   870	 1474636	50.1
   871	 1474686	50.1
   872	 1474736	50.1
   873	 1474786	49.8
   874	 1474836	50.1
   875	 1474886	50.1
   876	 1474936	50.1
   877	 1474986	50.1
   878	 1475038	49.9
   879	 1475086	49.8
   880	 1475136	49.9
   881	 1475186	49.9
   882	 1475236	50.1
   883	 1475296	49.9
   884	 1475342	49.9
   885	 1475390	50.1
   886	 1475438	49.9
   887	 1475486	50.1
   888	 1475536	50.1
   889	 1475586	50.1
   890	 1475636	50.1
   891	 1475686	50.1
   892	 1475736	50.1
   893	 1475786	50.1
   894	 1475836	49.9
   895	 1475886	50.1
   896	 1475936	50.1
   897	 1475986	50.1
   898	 1476038	49.9
   899	 1476086	50.1
   900	 1476136	50.1
   901	 1476186	50.1
   902	 1476242	50.1
   903	 1476286	50.1
   904	 1476336	50.1
   905	 1476386	50.1
   906	 1476444	50.1
   907	 1476494	50.1
   908	 1476540	50.1
   909	 1476586	49.9
   910	 1476636	49.9
   911	 1476686	50.1
   912	 1476742	49.9
   913	 1476788	50.1
   914	 1476836	50.1
   915	 1476886	49.9
   916	 1476936	50.1
   917	 1476986	50.1
   918	 1477038	50.1
   919	 1477086	50.1
   920	 1477136	50.1
   921	 1477186	50.1
   922	 1477236	50.1
   923	 1477286	50.3
   924	 1477336	50.3
   925	 1477386	50.3
   926	 1477436	50.3
   927	 1477486	50.3
   928	 1477536	50.3
   929	 1477586	50.3
   930	 1477636	50.3
   931	 1477686	50.3
   932	 1477736	50.1
   933	 1477786	49.9
   934	 1477836	50.1
   935	 1477896	50.1
   936	 1477942	50.1
   937	 1477990	50.1
   938	 1478036	50.1
   939	 1478086	50.1
   940	 1478136	50.1
   941	 1478186	49.9
   942	 1478236	50.1
   943	 1478286	50.1
   944	 1478336	50.1
   945	 1478386	50.1
   946	 1478436	49.9
   947	 1478486	49.9
   948	 1478536	49.9
   949	 1478586	49.9
   950	 1478636	49.9
   951	 1478698	50.1
